X [s];IL: EMG 1 [V];LON: EMG 2 [V]
0;0;0
0.000465517;0;0
0.000931034;0;0
0.001396552;0;0
0.001862069;0;0
0.002327586;0;0
0.002793103;0;0
0.003258621;0;0
0.003724138;0;0
0.004189655;0;0
0.004655172;0;0
0.00512069;0;0
0.005586207;0;0
0.006051724;0;0
0.006517241;0;0
0.006982759;0;0
0.007448276;0;0
0.007913793;0;0
0.00837931;0;0
0.008844828;0;0
0.009310345;0;0
0.009775862;0;0
0.010241379;0;0
0.010706897;0;0
0.011172414;0;0
0.011637931;0;0
0.012103448;0;0
0.012568966;0;0
0.013034483;0;0
0.0135;0;0
0.013965517;0;0
0.014431034;0;0
0.014896552;0;0
0.015362069;0;0
0.015827586;0;0
0.016293103;0;0
0.016758621;0;0
0.017224138;0;0
0.017689655;0;0
0.018155172;0;0
0.01862069;0;0
0.019086207;0;0
0.019551724;0;0
0.020017241;0;0
0.020482759;0;0
0.020948276;0;0
0.021413793;0;0
0.02187931;0;0
0.022344828;0;0
0.022810345;0;0
0.023275862;0;0
0.023741379;0;0
0.024206897;0;0
0.024672414;0;0
0.025137931;0;0
0.025603448;0;0
0.026068966;0;0
0.026534483;0;0
0.027;0;0
0.027465517;0;0
0.027931034;0;0
0.028396552;0;0
0.028862069;0;0
0.029327586;0;0
0.029793103;0;0
0.030258621;0;0
0.030724138;0;0
0.031189655;0;0
0.031655172;0;0
0.03212069;0;0
0.032586207;0;0
0.033051724;0;0
0.033517241;0;0
0.033982759;0;0
0.034448276;0;0
0.034913793;0;0
0.03537931;0;0
0.035844828;0;0
0.036310345;0;0
0.036775862;0;0
0.037241379;0;0
0.037706897;0;0
0.038172414;0;0
0.038637931;0;0
0.039103448;0;0
0.039568966;0;0
0.040034483;0;0
0.0405;0;0
0.040965517;0;0
0.041431034;0;0
0.041896552;0;0
0.042362069;0;0
0.042827586;0;0
0.043293103;0;0
0.043758621;0;0
0.044224138;0;0
0.044689655;0;0
0.045155172;0;0
0.04562069;0;0
0.046086207;0;0
0.046551724;0;0
0.047017241;0;0
0.047482759;0;0
0.047948276;0;0
0.048413793;0;0
0.04887931;0;0
0.049344828;0;0
0.049810345;0;0
0.050275862;0;0
0.050741379;0;0
0.051206897;0;0
0.051672414;0;0
0.052137931;0;0
0.052603448;0;0
0.053068966;0;0
0.053534483;0;0
0.054;0;0
0.054465517;0;0
0.054931034;0;0
0.055396552;0;0
0.055862069;0;0
0.056327586;0;0
0.056793103;0;0
0.057258621;0;0
0.057724138;0;0
0.058189655;0;0
0.058655172;0;0
0.05912069;0;0
0.059586207;0;0
0.060051724;0;0
0.060517241;0;0
0.060982759;0;0
0.061448276;0;0
0.061913793;0;0
0.06237931;0;0
0.062844828;0;0
0.063310345;0;0
0.063775862;0;0
0.064241379;0;0
0.064706897;0;0
0.065172414;0;0
0.065637931;0;0
0.066103448;0;0
0.066568966;0;0
0.067034483;0;0
0.0675;0;0
0.067965517;0;0
0.068431034;0;0
0.068896552;0;0
0.069362069;0;0
0.069827586;0;0
0.070293103;0;0
0.070758621;0;0
0.071224138;0;0
0.071689655;0;0
0.072155172;0;0
0.07262069;0;0
0.073086207;0;0
0.073551724;0;0
0.074017241;0;0
0.074482759;0;0
0.074948276;0;0
0.075413793;0;0
0.07587931;0;0
0.076344828;0;0
0.076810345;0;0
0.077275862;0;0
0.077741379;0;0
0.078206897;0;0
0.078672414;0;0
0.079137931;0;0
0.079603448;0;0
0.080068966;0;0
0.080534483;0;0
0.081;0;0
0.081465517;0;0
0.081931034;0;0
0.082396552;0;0
0.082862069;0;0
0.083327586;0;0
0.083793103;0;0
0.084258621;0;0
0.084724138;0;0
0.085189655;0;0
0.085655172;0;0
0.08612069;0;0
0.086586207;0;0
0.087051724;0;0
0.087517241;0;0
0.087982759;0;0
0.088448276;0;0
0.088913793;0;0
0.08937931;0;0
0.089844828;0;0
0.090310345;0;0
0.090775862;0;0
0.091241379;0;0
0.091706897;0;0
0.092172414;0;0
0.092637931;0;0
0.093103448;0;0
0.093568966;0;0
0.094034483;0;0
0.0945;-3.18914E-06;6.21042E-05
0.094965517;4.19623E-06;5.82437E-05
0.095431034;5.20333E-06;4.24659E-05
0.095896552;5.20333E-06;2.3331E-05
0.096362069;3.18914E-06;4.19623E-06
0.096827586;-2.51774E-06;-1.32601E-05
0.097293103;-1.15816E-05;-2.83665E-05
0.097758621;-1.69528E-05;-4.06195E-05
0.098224138;-1.64492E-05;-4.61585E-05
0.098689655;-1.42672E-05;-4.28016E-05
0.099155172;-1.32601E-05;-3.57519E-05
0.09962069;-1.09102E-05;-3.25628E-05
0.100086207;-1.09102E-05;-3.50805E-05
0.100551724;-1.15816E-05;-3.70947E-05
0.101017241;-1.2253E-05;-3.57519E-05
0.101482759;-1.12459E-05;-3.3402E-05
0.101948276;-8.56031E-06;-3.10521E-05
0.102413793;-6.88182E-06;-2.90379E-05
0.10287931;-6.21042E-06;-2.93736E-05
0.103344828;-4.69978E-06;-3.05486E-05
0.103810345;-3.02129E-06;-3.37377E-05
0.104275862;-2.18204E-06;-3.47448E-05
0.104741379;-5.03548E-07;-3.07164E-05
0.105206897;1.84634E-06;-2.50095E-05
0.105672414;4.53193E-06;-1.98062E-05
0.106137931;5.87472E-06;-1.52743E-05
0.106603448;5.87472E-06;-1.12459E-05
0.107068966;5.87472E-06;-8.22461E-06
0.107534483;6.21042E-06;-5.70687E-06
0.108;8.89601E-06;-4.53193E-06
0.108465517;1.19173E-05;-6.21042E-06
0.108931034;1.25887E-05;-8.22461E-06
0.109396552;1.10781E-05;-6.88182E-06
0.109862069;1.25887E-05;-4.53193E-06
0.110327586;1.39315E-05;-5.20333E-06
0.110793103;1.29244E-05;-7.55322E-06
0.111258621;1.25887E-05;-7.88891E-06
0.111724138;1.37636E-05;-2.85344E-06
0.112189655;1.49386E-05;1.84634E-06
0.112655172;1.51064E-05;6.21042E-06
0.11312069;1.62814E-05;9.9031E-06
0.113586207;1.93027E-05;1.09102E-05
0.114051724;2.19883E-05;1.12459E-05
0.114517241;2.23239E-05;1.42672E-05
0.114982759;1.96384E-05;1.76242E-05
0.115448276;1.82956E-05;1.79599E-05
0.115913793;1.82956E-05;1.52743E-05
0.11637931;1.72885E-05;1.49386E-05
0.116844828;1.561E-05;1.8967E-05
0.117310345;1.39315E-05;2.26596E-05
0.117775862;1.35958E-05;2.50095E-05
0.118241379;1.4435E-05;2.46738E-05
0.118706897;1.32601E-05;2.19883E-05
0.119172414;1.32601E-05;1.93027E-05
0.119637931;1.52743E-05;2.06455E-05
0.120103448;1.82956E-05;2.31632E-05
0.120568966;2.19883E-05;2.56809E-05
0.121034483;2.53452E-05;2.76951E-05
0.1215;2.6688E-05;2.58488E-05
0.121965517;2.51774E-05;1.79599E-05
0.122431034;2.26596E-05;4.36408E-06
0.122896552;2.13169E-05;-6.88182E-06
0.123362069;2.29953E-05;-1.05745E-05
0.123827586;2.6688E-05;-9.73526E-06
0.124293103;2.80308E-05;-8.56031E-06
0.124758621;2.53452E-05;-8.56031E-06
0.125224138;2.16526E-05;-1.91348E-05
0.125689655;2.09812E-05;-3.91089E-05
0.126155172;1.96384E-05;-5.53903E-05
0.12662069;1.66171E-05;-6.37827E-05
0.127086207;1.52743E-05;-6.73075E-05
0.127551724;1.32601E-05;-6.66362E-05
0.128017241;1.32601E-05;-6.32792E-05
0.128482759;1.52743E-05;-5.89151E-05
0.128948276;1.59457E-05;-5.25368E-05
0.129413793;1.46029E-05;-4.46479E-05
0.12987931;1.52743E-05;-3.84375E-05
0.130344828;1.76242E-05;-3.64233E-05
0.130810345;1.82956E-05;-3.64233E-05
0.131275862;1.64492E-05;-3.23949E-05
0.131741379;1.59457E-05;-2.50095E-05
0.132206897;1.66171E-05;-1.79599E-05
0.132672414;1.69528E-05;-1.49386E-05
0.133137931;1.561E-05;-1.52743E-05
0.133603448;1.25887E-05;-1.42672E-05
0.134068966;7.21752E-06;-1.29244E-05
0.134534483;1.17494E-06;-1.2253E-05
0.135;-2.01419E-06;-9.56741E-06
0.135465517;-3.52483E-06;-3.18914E-06
0.135931034;-8.22461E-06;4.53193E-06
0.136396552;-1.29244E-05;1.59457E-05
0.136862069;-1.25887E-05;3.17235E-05
0.137327586;-8.89601E-06;4.95155E-05
0.137793103;-4.86763E-06;6.52934E-05
0.138258621;-5.03548E-07;7.50286E-05
0.138724138;3.18914E-06;8.10712E-05
0.139189655;7.21752E-06;8.61067E-05
0.139655172;9.56741E-06;8.67781E-05
0.14012069;1.05745E-05;8.2414E-05
0.140586207;1.12459E-05;7.40215E-05
0.141051724;1.05745E-05;6.29435E-05
0.141517241;1.02388E-05;5.08583E-05
0.141982759;7.88891E-06;4.28016E-05
0.142448276;5.20333E-06;3.84375E-05
0.142913793;5.87472E-06;3.57519E-05
0.14337931;8.22461E-06;3.30663E-05
0.143844828;8.56031E-06;3.0045E-05
0.144310345;6.54612E-06;2.36667E-05
0.144775862;4.53193E-06;1.32601E-05
0.145241379;4.86763E-06;2.85344E-06
0.145706897;2.51774E-06;-6.04257E-06
0.146172414;-1.84634E-06;-1.09102E-05
0.146637931;-4.19623E-06;-9.23171E-06
0.147103448;-4.19623E-06;-4.53193E-06
0.147568966;-3.52483E-06;-3.69268E-06
0.148034483;-3.52483E-06;-7.21752E-06
0.1485;-2.01419E-06;-7.88891E-06
0.148965517;-1.67849E-07;-5.87472E-06
0.149431034;1.51064E-06;-8.22461E-06
0.149896552;2.34989E-06;-1.15816E-05
0.150362069;1.84634E-06;-1.09102E-05
0.150827586;8.39246E-07;-5.87472E-06
0.151293103;-1.51064E-06;1.51064E-06
0.151758621;-1.67849E-06;8.56031E-06
0.152224138;-1.67849E-07;1.19173E-05
0.152689655;2.51774E-06;1.561E-05
0.153155172;4.86763E-06;2.04776E-05
0.15362069;7.72107E-06;2.83665E-05
0.154086207;8.89601E-06;3.54162E-05
0.154551724;8.56031E-06;3.97803E-05
0.155017241;8.39246E-06;3.92767E-05
0.155482759;8.89601E-06;3.25628E-05
0.155948276;6.21042E-06;1.86313E-05
0.156413793;3.02129E-06;4.19623E-06
0.15687931;1.84634E-06;-3.18914E-06
0.157344828;3.02129E-06;-4.69978E-06
0.157810345;2.51774E-06;-7.88891E-06
0.158275862;1.17494E-06;-1.29244E-05
0.158741379;2.51774E-06;-1.62814E-05
0.159206897;4.19623E-06;-1.7792E-05
0.159672414;7.88891E-06;-1.8967E-05
0.160137931;1.39315E-05;-1.62814E-05
0.160603448;1.72885E-05;-9.9031E-06
0.161068966;1.67849E-05;-3.86053E-06
0.161534483;1.66171E-05;1.17494E-06
0.162;1.82956E-05;5.03548E-06
0.162465517;2.03098E-05;6.21042E-06
0.162931034;2.23239E-05;4.36408E-06
0.163396552;2.29953E-05;2.01419E-06
0.163862069;2.36667E-05;2.51774E-06
0.164327586;2.29953E-05;3.52483E-06
0.164793103;1.99741E-05;3.52483E-06
0.165258621;1.86313E-05;3.02129E-06
0.165724138;1.99741E-05;1.84634E-06
0.166189655;1.96384E-05;-5.03548E-07
0.166655172;1.72885E-05;-1.84634E-06
0.16712069;1.39315E-05;-8.39246E-07
0.167586207;9.9031E-06;2.85344E-06
0.168051724;7.88891E-06;7.04967E-06
0.168517241;8.56031E-06;1.02388E-05
0.168982759;1.05745E-05;1.09102E-05
0.169448276;1.25887E-05;1.02388E-05
0.169913793;1.39315E-05;1.05745E-05
0.17037931;1.64492E-05;1.17494E-05
0.170844828;1.72885E-05;1.05745E-05
0.171310345;1.79599E-05;9.56741E-06
0.171775862;1.86313E-05;1.25887E-05
0.172241379;1.72885E-05;1.71206E-05
0.172706897;1.52743E-05;1.93027E-05
0.173172414;1.29244E-05;2.26596E-05
0.173637931;1.19173E-05;2.6688E-05
0.174103448;1.10781E-05;2.60166E-05
0.174568966;9.73526E-06;1.79599E-05
0.175034483;1.02388E-05;8.22461E-06
0.1755;1.15816E-05;8.39246E-07
0.175965517;1.09102E-05;-4.36408E-06
0.176431034;1.19173E-05;-7.55322E-06
0.176896552;1.561E-05;-3.02129E-06
0.177362069;1.8967E-05;9.23171E-06
0.177827586;1.86313E-05;1.86313E-05
0.178293103;1.72885E-05;1.98062E-05
0.178758621;1.561E-05;1.8967E-05
0.179224138;1.39315E-05;2.06455E-05
0.179689655;1.46029E-05;2.53452E-05
0.180155172;1.72885E-05;3.0045E-05
0.18062069;1.76242E-05;2.73594E-05
0.181086207;1.42672E-05;1.32601E-05
0.181551724;1.37636E-05;-4.19623E-06
0.182017241;1.42672E-05;-1.76242E-05
0.182482759;1.42672E-05;-2.03098E-05
0.182948276;1.59457E-05;-1.29244E-05
0.183413793;1.93027E-05;-2.85344E-06
0.18387931;2.1149E-05;4.53193E-06
0.184344828;1.82956E-05;7.55322E-06
0.184810345;1.39315E-05;9.73526E-06
0.185275862;1.30922E-05;1.12459E-05
0.185741379;1.46029E-05;1.12459E-05
0.186206897;1.59457E-05;5.87472E-06
0.186672414;1.7792E-05;1.17494E-06
0.187137931;1.82956E-05;-1.0071E-06
0.187603448;1.79599E-05;-3.52483E-06
0.188068966;1.51064E-05;-6.88182E-06
0.188534483;1.32601E-05;-7.55322E-06
0.189;1.19173E-05;-5.53903E-06
0.189465517;8.56031E-06;-4.53193E-06
0.189931034;3.86053E-06;-5.03548E-06
0.190396552;8.39246E-07;-4.53193E-06
0.190862069;1.67849E-07;-3.86053E-06
0.191327586;-8.39246E-07;-2.85344E-06
0.191793103;-2.85344E-06;5.03548E-07
0.192258621;-6.88182E-06;2.51774E-06
0.192724138;-1.12459E-05;1.17494E-06
0.193189655;-1.52743E-05;-2.18204E-06
0.193655172;-1.76242E-05;-4.53193E-06
0.19412069;-1.66171E-05;-5.53903E-06
0.194586207;-1.46029E-05;-6.54612E-06
0.195051724;-1.19173E-05;-7.21752E-06
0.195517241;-8.22461E-06;-4.19623E-06
0.195982759;-3.86053E-06;-5.03548E-07
0.196448276;-8.39246E-07;1.67849E-07
0.196913793;-1.67849E-07;-2.51774E-06
0.19737931;8.39246E-07;-6.21042E-06
0.197844828;3.86053E-06;-9.06386E-06
0.198310345;6.88182E-06;-1.02388E-05
0.198775862;6.54612E-06;-1.05745E-05
0.199241379;5.53903E-06;-1.30922E-05
0.199706897;4.19623E-06;-1.86313E-05
0.200172414;3.86053E-06;-2.43381E-05
0.200637931;6.88182E-06;-2.63523E-05
0.201103448;1.2253E-05;-2.36667E-05
0.201568966;1.59457E-05;-1.99741E-05
0.202034483;1.79599E-05;-1.79599E-05
0.2025;2.03098E-05;-1.86313E-05
0.202965517;2.16526E-05;-2.3331E-05
0.203431034;2.16526E-05;-2.73594E-05
0.203896552;2.13169E-05;-2.88701E-05
0.204362069;2.09812E-05;-2.87022E-05
0.204827586;1.99741E-05;-2.63523E-05
0.205293103;1.99741E-05;-2.09812E-05
0.205758621;2.03098E-05;-1.49386E-05
0.206224138;1.91348E-05;-8.56031E-06
0.206689655;1.49386E-05;-2.85344E-06
0.207155172;1.02388E-05;4.69978E-06
0.20762069;6.54612E-06;1.52743E-05
0.208086207;4.53193E-06;2.46738E-05
0.208551724;1.67849E-06;3.10521E-05
0.209017241;-1.17494E-06;3.60876E-05
0.209482759;-3.18914E-06;3.84375E-05
0.209948276;-3.02129E-06;3.70947E-05
0.210413793;-1.84634E-06;3.3402E-05
0.21087931;-1.51064E-06;3.07164E-05
0.211344828;-1.51064E-06;2.87022E-05
0.211810345;1.17494E-06;2.76951E-05
0.212275862;2.51774E-06;2.76951E-05
0.212741379;2.18204E-06;2.7863E-05
0.213206897;1.84634E-06;2.58488E-05
0.213672414;2.18204E-06;2.36667E-05
0.214137931;2.51774E-06;2.50095E-05
0.214603448;3.18914E-06;2.61845E-05
0.215068966;3.18914E-06;2.6688E-05
0.215534483;1.17494E-06;2.3331E-05
0.216;-1.67849E-07;1.46029E-05
0.216465517;1.67849E-06;4.53193E-06
0.216931034;5.03548E-06;-1.51064E-06
0.217396552;6.54612E-06;-9.56741E-06
0.217862069;4.53193E-06;-2.06455E-05
0.218327586;3.18914E-06;-2.53452E-05
0.218793103;3.86053E-06;-2.16526E-05
0.219258621;6.21042E-06;-1.20851E-05
0.219724138;8.56031E-06;-2.85344E-06
0.220189655;9.23171E-06;2.18204E-06
0.220655172;8.89601E-06;3.18914E-06
0.22112069;9.73526E-06;3.52483E-06
0.221586207;1.15816E-05;6.54612E-06
0.222051724;1.32601E-05;1.05745E-05
0.222517241;1.42672E-05;1.2253E-05
0.222982759;1.46029E-05;1.19173E-05
0.223448276;1.39315E-05;1.17494E-05
0.223913793;1.32601E-05;1.15816E-05
0.22437931;1.29244E-05;1.19173E-05
0.224844828;1.32601E-05;1.25887E-05
0.225310345;1.32601E-05;1.30922E-05
0.225775862;1.25887E-05;1.25887E-05
0.226241379;1.24208E-05;1.24208E-05
0.226706897;1.32601E-05;1.19173E-05
0.227172414;1.59457E-05;1.05745E-05
0.227637931;1.86313E-05;1.19173E-05
0.228103448;1.99741E-05;1.51064E-05
0.228568966;1.98062E-05;1.52743E-05
0.229034483;1.93027E-05;1.32601E-05
0.2295;1.99741E-05;1.12459E-05
0.229965517;1.86313E-05;1.05745E-05
0.230431034;1.69528E-05;1.19173E-05
0.230896552;1.46029E-05;1.19173E-05
0.231362069;1.24208E-05;6.54612E-06
0.231827586;1.25887E-05;-1.84634E-06
0.232293103;1.46029E-05;-7.55322E-06
0.232758621;1.52743E-05;-9.56741E-06
0.233224138;1.42672E-05;-1.02388E-05
0.233689655;1.25887E-05;-1.42672E-05
0.234155172;1.02388E-05;-2.03098E-05
0.23462069;9.9031E-06;-2.36667E-05
0.235086207;1.09102E-05;-2.43381E-05
0.235551724;1.25887E-05;-2.26596E-05
0.236017241;1.39315E-05;-1.96384E-05
0.236482759;1.32601E-05;-1.82956E-05
0.236948276;1.12459E-05;-1.96384E-05
0.237413793;9.23171E-06;-2.08133E-05
0.23787931;7.21752E-06;-2.03098E-05
0.238344828;6.54612E-06;-2.21561E-05
0.238810345;5.87472E-06;-2.60166E-05
0.239275862;4.53193E-06;-2.75273E-05
0.239741379;1.0071E-06;-2.63523E-05
0.240206897;-2.51774E-06;-2.40024E-05
0.240672414;-2.85344E-06;-2.04776E-05
0.241137931;6.71397E-07;-1.62814E-05
0.241603448;3.86053E-06;-1.19173E-05
0.242068966;4.19623E-06;-9.23171E-06
0.242534483;4.86763E-06;-8.56031E-06
0.243;4.19623E-06;-7.21752E-06
0.243465517;2.51774E-06;-4.36408E-06
0.243931034;1.17494E-06;-3.18914E-06
0.244396552;-1.67849E-07;-2.18204E-06
0.244862069;5.03548E-07;5.70687E-06
0.245327586;1.84634E-06;1.99741E-05
0.245793103;2.51774E-06;3.44091E-05
0.246258621;2.85344E-06;4.61585E-05
0.246724138;2.18204E-06;4.98512E-05
0.247189655;3.86053E-06;4.68299E-05
0.247655172;6.54612E-06;4.41444E-05
0.24812069;8.56031E-06;4.48157E-05
0.248586207;9.23171E-06;4.68299E-05
0.249051724;9.9031E-06;4.71656E-05
0.249517241;9.23171E-06;4.14588E-05
0.249982759;7.88891E-06;3.0045E-05
0.250448276;7.21752E-06;2.06455E-05
0.250913793;7.88891E-06;1.99741E-05
0.25137931;1.05745E-05;2.65202E-05
0.251844828;1.19173E-05;3.20592E-05
0.252310345;1.29244E-05;3.6759E-05
0.252775862;1.32601E-05;3.97803E-05
0.253241379;1.39315E-05;4.14588E-05
0.253706897;1.49386E-05;4.17945E-05
0.254172414;1.52743E-05;3.74304E-05
0.254637931;1.46029E-05;3.13878E-05
0.255103448;1.30922E-05;2.51774E-05
0.255568966;1.15816E-05;1.59457E-05
0.256034483;1.09102E-05;5.53903E-06
0.2565;1.15816E-05;-1.51064E-06
0.256965517;1.2253E-05;-6.21042E-06
0.257431034;1.02388E-05;-9.73526E-06
0.257896552;9.56741E-06;-1.12459E-05
0.258362069;1.15816E-05;-9.56741E-06
0.258827586;1.19173E-05;-8.72816E-06
0.259293103;9.9031E-06;-1.19173E-05
0.259758621;8.05676E-06;-1.29244E-05
0.260224138;8.89601E-06;-8.56031E-06
0.260689655;1.02388E-05;-2.85344E-06
0.261155172;1.05745E-05;-1.51064E-06
0.26162069;1.25887E-05;-2.18204E-06
0.262086207;1.32601E-05;-1.51064E-06
0.262551724;1.12459E-05;-1.67849E-07
0.263017241;9.23171E-06;-8.39246E-07
0.263482759;6.54612E-06;-3.52483E-06
0.263948276;4.53193E-06;-4.19623E-06
0.264413793;1.84634E-06;-2.18204E-06
0.26487931;1.0071E-06;1.17494E-06
0.265344828;2.51774E-06;5.20333E-06
0.265810345;5.53903E-06;9.23171E-06
0.266275862;5.20333E-06;1.25887E-05
0.266741379;5.20333E-06;1.67849E-05
0.267206897;7.21752E-06;2.1149E-05
0.267672414;9.23171E-06;2.31632E-05
0.268137931;1.12459E-05;2.31632E-05
0.268603448;1.19173E-05;2.13169E-05
0.269068966;1.32601E-05;1.93027E-05
0.269534483;1.46029E-05;1.96384E-05
0.27;1.42672E-05;2.06455E-05
0.270465517;1.42672E-05;2.06455E-05
0.270931034;1.46029E-05;1.99741E-05
0.271396552;1.4435E-05;1.93027E-05
0.271862069;1.32601E-05;1.79599E-05
0.272327586;1.35958E-05;1.59457E-05
0.272793103;1.59457E-05;1.62814E-05
0.273258621;1.86313E-05;1.76242E-05
0.273724138;2.06455E-05;1.93027E-05
0.274189655;2.26596E-05;2.19883E-05
0.274655172;1.99741E-05;2.13169E-05
0.27512069;1.7792E-05;1.91348E-05
0.275586207;1.7792E-05;1.86313E-05
0.276051724;1.72885E-05;1.8967E-05
0.276517241;1.59457E-05;2.19883E-05
0.276982759;1.52743E-05;2.50095E-05
0.277448276;1.52743E-05;2.80308E-05
0.277913793;1.46029E-05;3.0045E-05
0.27837931;1.52743E-05;2.87022E-05
0.278844828;1.52743E-05;2.3331E-05
0.279310345;1.42672E-05;2.19883E-05
0.279775862;1.32601E-05;2.36667E-05
0.280241379;1.32601E-05;2.43381E-05
0.280706897;1.15816E-05;2.1149E-05
0.281172414;1.04067E-05;1.76242E-05
0.281637931;1.05745E-05;1.46029E-05
0.282103448;9.9031E-06;9.9031E-06
0.282568966;7.72107E-06;3.86053E-06
0.283034483;6.54612E-06;-8.39246E-07
0.2835;5.03548E-06;-5.53903E-06
0.283965517;3.52483E-06;-8.89601E-06
0.284431034;2.18204E-06;-1.15816E-05
0.284896552;2.18204E-06;-1.42672E-05
0.285362069;3.86053E-06;-1.69528E-05
0.285827586;5.20333E-06;-1.82956E-05
0.286293103;6.04257E-06;-1.98062E-05
0.286758621;5.87472E-06;-1.96384E-05
0.287224138;3.86053E-06;-1.72885E-05
0.287689655;3.86053E-06;-1.29244E-05
0.288155172;3.86053E-06;-1.09102E-05
0.28862069;3.18914E-06;-9.56741E-06
0.289086207;3.18914E-06;-9.9031E-06
0.289551724;2.85344E-06;-1.29244E-05
0.290017241;3.86053E-06;-1.79599E-05
0.290482759;4.53193E-06;-2.06455E-05
0.290948276;5.03548E-06;-1.99741E-05
0.291413793;4.53193E-06;-1.66171E-05
0.29187931;6.21042E-06;-1.12459E-05
0.292344828;8.56031E-06;-8.56031E-06
0.292810345;9.56741E-06;-8.56031E-06
0.293275862;8.89601E-06;-7.21752E-06
0.293741379;8.22461E-06;-7.04967E-06
0.294206897;5.70687E-06;-8.22461E-06
0.294672414;2.51774E-06;-7.55322E-06
0.295137931;2.18204E-06;-4.86763E-06
0.295603448;1.84634E-06;-2.85344E-06
0.296068966;8.39246E-07;-2.51774E-06
0.296534483;8.39246E-07;-2.18204E-06
0.297;2.18204E-06;-1.51064E-06
0.297465517;2.85344E-06;-2.18204E-06
0.297931034;2.18204E-06;-3.18914E-06
0.298396552;5.03548E-07;-2.51774E-06
0.298862069;-3.35698E-07;-1.17494E-06
0.299327586;1.67849E-07;-1.51064E-06
0.299793103;1.84634E-06;-2.18204E-06
0.300258621;2.51774E-06;-2.18204E-06
0.300724138;2.18204E-06;-4.36408E-06
0.301189655;1.17494E-06;-6.88182E-06
0.301655172;8.39246E-07;-6.88182E-06
0.30212069;2.51774E-06;-5.53903E-06
0.302586207;4.53193E-06;-3.52483E-06
0.303051724;3.86053E-06;-1.67849E-07
0.303517241;5.03548E-06;3.86053E-06
0.303982759;7.55322E-06;6.54612E-06
0.304448276;9.9031E-06;7.72107E-06
0.304913793;1.02388E-05;6.54612E-06
0.30537931;9.23171E-06;4.02838E-06
0.305844828;8.56031E-06;8.39246E-07
0.306310345;6.54612E-06;-2.18204E-06
0.306775862;6.54612E-06;-4.36408E-06
0.307241379;9.23171E-06;-4.19623E-06
0.307706897;1.04067E-05;-1.84634E-06
0.308172414;9.23171E-06;-2.51774E-06
0.308637931;8.39246E-06;-4.19623E-06
0.309103448;9.23171E-06;-5.53903E-06
0.309568966;1.09102E-05;-4.69978E-06
0.310034483;1.05745E-05;-3.02129E-06
0.3105;9.23171E-06;-2.18204E-06
0.310965517;1.02388E-05;-2.34989E-06
0.311431034;1.25887E-05;-3.18914E-06
0.311896552;1.4435E-05;-2.51774E-06
0.312362069;1.59457E-05;-8.39246E-07
0.312827586;1.82956E-05;2.18204E-06
0.313293103;1.98062E-05;2.51774E-06
0.313758621;1.82956E-05;2.18204E-06
0.314224138;1.71206E-05;4.86763E-06
0.314689655;1.86313E-05;9.23171E-06
0.315155172;1.94705E-05;1.12459E-05
0.31562069;1.7792E-05;1.29244E-05
0.316086207;1.62814E-05;1.59457E-05
0.316551724;1.72885E-05;2.16526E-05
0.317017241;1.82956E-05;2.93736E-05
0.317482759;1.93027E-05;3.6759E-05
0.317948276;1.98062E-05;3.79339E-05
0.318413793;1.69528E-05;3.20592E-05
0.31887931;1.35958E-05;2.6688E-05
0.319344828;1.2253E-05;2.36667E-05
0.319810345;1.32601E-05;2.24918E-05
0.320275862;1.52743E-05;2.04776E-05
0.320741379;1.59457E-05;1.62814E-05
0.321206897;1.49386E-05;6.88182E-06
0.321672414;1.15816E-05;-5.53903E-06
0.322137931;7.21752E-06;-1.35958E-05
0.322603448;5.20333E-06;-1.66171E-05
0.323068966;5.53903E-06;-1.46029E-05
0.323534483;7.55322E-06;-1.05745E-05
0.324;8.89601E-06;-6.88182E-06
0.324465517;9.06386E-06;-6.54612E-06
0.324931034;1.09102E-05;-8.56031E-06
0.325396552;1.12459E-05;-1.14137E-05
0.325862069;9.9031E-06;-1.51064E-05
0.326327586;7.55322E-06;-1.49386E-05
0.326793103;4.19623E-06;-1.05745E-05
0.327258621;2.18204E-06;-4.86763E-06
0.327724138;2.85344E-06;-5.03548E-07
0.328189655;3.86053E-06;-1.17494E-06
0.328655172;3.18914E-06;-8.22461E-06
0.32912069;3.52483E-06;-1.35958E-05
0.329586207;5.87472E-06;-1.02388E-05
0.330051724;7.04967E-06;-3.69268E-06
0.330517241;5.20333E-06;-1.51064E-06
0.330982759;2.34989E-06;-6.21042E-06
0.331448276;-1.67849E-07;-1.2253E-05
0.331913793;-1.51064E-06;-1.52743E-05
0.33237931;-1.67849E-07;-1.49386E-05
0.332844828;2.18204E-06;-1.49386E-05
0.333310345;3.18914E-06;-2.1149E-05
0.333775862;4.53193E-06;-3.122E-05
0.334241379;6.88182E-06;-3.79339E-05
0.334706897;6.54612E-06;-3.97803E-05
0.335172414;4.53193E-06;-3.40734E-05
0.335637931;6.54612E-06;-2.09812E-05
0.336103448;1.05745E-05;-4.19623E-06
0.336568966;1.12459E-05;1.10781E-05
0.337034483;1.05745E-05;2.09812E-05
0.3375;8.56031E-06;2.36667E-05
0.337965517;5.87472E-06;2.13169E-05
0.338431034;2.51774E-06;1.98062E-05
0.338896552;-1.67849E-07;2.38346E-05
0.339362069;1.67849E-07;3.10521E-05
0.339827586;2.51774E-06;3.74304E-05
0.340293103;3.18914E-06;3.87732E-05
0.340758621;2.85344E-06;3.47448E-05
0.341224138;2.51774E-06;2.90379E-05
0.341689655;1.17494E-06;2.51774E-05
0.342155172;-2.18204E-06;2.46738E-05
0.34262069;-3.52483E-06;2.70237E-05
0.343086207;-3.52483E-06;2.85344E-05
0.343551724;-2.85344E-06;2.73594E-05
0.344017241;-1.51064E-06;2.51774E-05
0.344482759;-8.39246E-07;2.3331E-05
0.344948276;-1.51064E-06;2.03098E-05
0.345413793;-2.85344E-06;1.46029E-05
0.34587931;-1.67849E-06;7.38537E-06
0.346344828;-1.51064E-06;2.18204E-06
0.346810345;-8.39246E-07;1.67849E-07
0.347275862;8.39246E-07;1.0071E-06
0.347741379;2.34989E-06;2.34989E-06
0.348206897;2.51774E-06;4.53193E-06
0.348672414;4.86763E-06;7.72107E-06
0.349137931;9.23171E-06;1.17494E-05
0.349603448;1.29244E-05;1.46029E-05
0.350068966;1.46029E-05;1.57778E-05
0.350534483;1.32601E-05;1.29244E-05
0.351;1.39315E-05;5.87472E-06
0.351465517;1.64492E-05;3.35698E-07
0.351931034;1.82956E-05;-1.84634E-06
0.352396552;1.82956E-05;-1.84634E-06
0.352862069;1.62814E-05;-1.0071E-06
0.353327586;1.49386E-05;-2.51774E-06
0.353793103;1.52743E-05;-3.86053E-06
0.354258621;1.64492E-05;-2.85344E-06
0.354724138;1.72885E-05;-1.17494E-06
0.355189655;1.561E-05;-1.67849E-07
0.355655172;1.32601E-05;1.84634E-06
0.35612069;1.39315E-05;3.86053E-06
0.356586207;1.62814E-05;3.52483E-06
0.357051724;1.59457E-05;1.84634E-06
0.357517241;1.32601E-05;1.17494E-06
0.357982759;1.19173E-05;3.18914E-06
0.358448276;1.12459E-05;6.04257E-06
0.358913793;8.56031E-06;9.23171E-06
0.35937931;7.21752E-06;1.12459E-05
0.359844828;7.88891E-06;1.15816E-05
0.360310345;9.23171E-06;1.25887E-05
0.360775862;8.89601E-06;1.32601E-05
0.361241379;7.88891E-06;1.46029E-05
0.361706897;7.04967E-06;1.52743E-05
0.362172414;6.21042E-06;1.49386E-05
0.362637931;7.21752E-06;1.46029E-05
0.363103448;8.39246E-06;1.46029E-05
0.363568966;6.88182E-06;1.35958E-05
0.364034483;5.70687E-06;1.19173E-05
0.3645;5.20333E-06;8.22461E-06
0.364965517;5.87472E-06;5.87472E-06
0.365431034;6.88182E-06;5.20333E-06
0.365896552;8.89601E-06;4.53193E-06
0.366362069;9.9031E-06;3.86053E-06
0.366827586;9.9031E-06;4.86763E-06
0.367293103;9.23171E-06;5.87472E-06
0.367758621;8.22461E-06;7.21752E-06
0.368224138;7.55322E-06;8.39246E-06
0.368689655;6.54612E-06;8.56031E-06
0.369155172;7.21752E-06;5.53903E-06
0.36962069;8.22461E-06;2.18204E-06
0.370086207;8.39246E-06;-1.67849E-07
0.370551724;7.38537E-06;-1.67849E-07
0.371017241;6.21042E-06;2.85344E-06
0.371482759;5.20333E-06;6.54612E-06
0.371948276;5.87472E-06;1.12459E-05
0.372413793;5.87472E-06;1.76242E-05
0.37287931;6.54612E-06;2.40024E-05
0.373344828;8.89601E-06;2.36667E-05
0.373810345;1.05745E-05;1.39315E-05
0.374275862;1.05745E-05;5.20333E-06
0.374741379;1.04067E-05;2.51774E-06
0.375206897;9.23171E-06;4.53193E-06
0.375672414;8.89601E-06;4.86763E-06
0.376137931;9.9031E-06;-1.67849E-06
0.376603448;1.17494E-05;-1.25887E-05
0.377068966;1.19173E-05;-2.13169E-05
0.377534483;1.05745E-05;-2.46738E-05
0.378;1.19173E-05;-2.18204E-05
0.378465517;1.52743E-05;-1.52743E-05
0.378931034;1.76242E-05;-5.53903E-06
0.379396552;1.84634E-05;5.53903E-06
0.379862069;1.82956E-05;1.25887E-05
0.380327586;1.69528E-05;1.62814E-05
0.380793103;1.29244E-05;1.71206E-05
0.381258621;9.73526E-06;1.46029E-05
0.381724138;7.21752E-06;1.04067E-05
0.382189655;5.20333E-06;8.89601E-06
0.382655172;3.18914E-06;7.04967E-06
0.38312069;8.39246E-07;4.19623E-06
0.383586207;-1.51064E-06;3.18914E-06
0.384051724;-2.18204E-06;4.19623E-06
0.384517241;-2.85344E-06;6.37827E-06
0.384982759;-4.19623E-06;7.55322E-06
0.385448276;-5.20333E-06;6.88182E-06
0.385913793;-5.53903E-06;6.88182E-06
0.38637931;-2.85344E-06;7.72107E-06
0.386844828;5.03548E-07;8.56031E-06
0.387310345;1.17494E-06;1.05745E-05
0.387775862;8.39246E-07;1.37636E-05
0.388241379;8.39246E-07;1.52743E-05
0.388706897;1.84634E-06;1.19173E-05
0.389172414;2.85344E-06;5.87472E-06
0.389637931;5.20333E-06;1.17494E-06
0.390103448;6.21042E-06;8.39246E-07
0.390568966;8.22461E-06;1.17494E-06
0.391034483;1.15816E-05;3.52483E-06
0.3915;1.42672E-05;7.21752E-06
0.391965517;1.561E-05;8.56031E-06
0.392431034;1.66171E-05;8.56031E-06
0.392896552;1.69528E-05;8.89601E-06
0.393362069;1.72885E-05;1.04067E-05
0.393827586;1.99741E-05;1.19173E-05
0.394293103;2.34989E-05;1.24208E-05
0.394758621;2.46738E-05;8.89601E-06
0.395224138;2.3331E-05;4.69978E-06
0.395689655;2.19883E-05;3.18914E-06
0.396155172;2.13169E-05;1.51064E-06
0.39662069;2.06455E-05;-2.18204E-06
0.397086207;1.8967E-05;-6.21042E-06
0.397551724;1.82956E-05;-8.22461E-06
0.398017241;1.69528E-05;-1.02388E-05
0.398482759;1.42672E-05;-1.09102E-05
0.398948276;1.25887E-05;-8.56031E-06
0.399413793;1.15816E-05;-4.53193E-06
0.39987931;1.15816E-05;-2.34989E-06
0.400344828;9.23171E-06;-5.03548E-07
0.400810345;7.88891E-06;-6.71397E-07
0.401275862;6.88182E-06;-2.34989E-06
0.401741379;5.03548E-06;-3.52483E-06
0.402206897;2.51774E-06;-6.21042E-06
0.402672414;1.67849E-06;-1.12459E-05
0.403137931;2.85344E-06;-1.2253E-05
0.403603448;3.86053E-06;-8.22461E-06
0.404068966;4.19623E-06;-3.86053E-06
0.404534483;3.52483E-06;-1.84634E-06
0.405;4.19623E-06;-3.02129E-06
0.405465517;5.20333E-06;-4.19623E-06
0.405931034;6.54612E-06;-6.21042E-06
0.406396552;6.54612E-06;-1.02388E-05
0.406862069;5.87472E-06;-1.29244E-05
0.407327586;6.88182E-06;-1.19173E-05
0.407793103;8.56031E-06;-6.88182E-06
0.408258621;6.88182E-06;-1.51064E-06
0.408724138;4.86763E-06;1.84634E-06
0.409189655;4.19623E-06;3.86053E-06
0.409655172;5.20333E-06;5.20333E-06
0.41012069;7.21752E-06;6.88182E-06
0.410586207;7.88891E-06;9.56741E-06
0.411051724;9.23171E-06;1.4435E-05
0.411517241;1.24208E-05;1.99741E-05
0.411982759;1.52743E-05;2.34989E-05
0.412448276;1.561E-05;2.50095E-05
0.412913793;1.52743E-05;2.36667E-05
0.41337931;1.59457E-05;2.43381E-05
0.413844828;1.72885E-05;2.71916E-05
0.414310345;1.79599E-05;2.87022E-05
0.414775862;1.7792E-05;2.56809E-05
0.415241379;1.52743E-05;1.96384E-05
0.415706897;1.02388E-05;8.89601E-06
0.416172414;7.55322E-06;-1.67849E-07
0.416637931;6.54612E-06;-3.02129E-06
0.417103448;5.87472E-06;-4.53193E-06
0.417568966;5.20333E-06;-3.86053E-06
0.418034483;4.53193E-06;5.03548E-07
0.4185;3.52483E-06;3.86053E-06
0.418965517;1.17494E-06;5.87472E-06
0.419431034;5.03548E-07;7.55322E-06
0.419896552;2.51774E-06;9.23171E-06
0.420362069;3.52483E-06;1.19173E-05
0.420827586;2.51774E-06;1.82956E-05
0.421293103;-1.67849E-07;2.24918E-05
0.421758621;-1.67849E-07;2.26596E-05
0.422224138;3.02129E-06;1.99741E-05
0.422689655;7.55322E-06;1.86313E-05
0.423155172;9.23171E-06;1.72885E-05
0.42362069;1.05745E-05;1.76242E-05
0.424086207;1.17494E-05;1.79599E-05
0.424551724;1.19173E-05;1.59457E-05
0.425017241;1.14137E-05;1.2253E-05
0.425482759;1.10781E-05;7.21752E-06
0.425948276;1.12459E-05;-2.18204E-06
0.426413793;1.05745E-05;-1.49386E-05
0.42687931;1.05745E-05;-2.16526E-05
0.427344828;1.15816E-05;-1.98062E-05
0.427810345;1.25887E-05;-1.561E-05
0.428275862;1.05745E-05;-1.25887E-05
0.428741379;7.21752E-06;-1.09102E-05
0.429206897;5.20333E-06;-1.05745E-05
0.429672414;2.51774E-06;-1.09102E-05
0.430137931;-8.39246E-07;-1.32601E-05
0.430603448;-1.51064E-06;-1.76242E-05
0.431068966;-1.67849E-07;-1.93027E-05
0.431534483;1.0071E-06;-1.62814E-05
0.432;3.35698E-07;-9.56741E-06
0.432465517;5.03548E-07;-5.53903E-06
0.432931034;1.84634E-06;-3.86053E-06
0.433396552;1.84634E-06;-1.17494E-06
0.433862069;1.17494E-06;2.85344E-06
0.434327586;1.84634E-06;5.87472E-06
0.434793103;2.85344E-06;6.54612E-06
0.435258621;4.36408E-06;3.86053E-06
0.435724138;4.53193E-06;1.17494E-06
0.436189655;3.52483E-06;2.51774E-06
0.436655172;3.02129E-06;6.54612E-06
0.43712069;2.18204E-06;9.9031E-06
0.437586207;1.17494E-06;1.15816E-05
0.438051724;1.17494E-06;1.15816E-05
0.438517241;2.51774E-06;7.88891E-06
0.438982759;3.52483E-06;4.36408E-06
0.439448276;4.53193E-06;1.84634E-06
0.439913793;4.53193E-06;8.39246E-07
0.44037931;6.37827E-06;1.17494E-06
0.440844828;1.0071E-05;3.18914E-06
0.441310345;1.25887E-05;5.20333E-06
0.441775862;1.32601E-05;5.70687E-06
0.442241379;1.25887E-05;4.53193E-06
0.442706897;1.12459E-05;5.20333E-06
0.443172414;1.10781E-05;7.72107E-06
0.443637931;1.25887E-05;9.9031E-06
0.444103448;1.59457E-05;9.23171E-06
0.444568966;1.69528E-05;5.20333E-06
0.445034483;1.59457E-05;1.67849E-06
0.4455;1.46029E-05;2.34989E-06
0.445965517;1.59457E-05;3.69268E-06
0.446431034;1.86313E-05;3.18914E-06
0.446896552;2.03098E-05;2.34989E-06
0.447362069;1.86313E-05;3.18914E-06
0.447827586;1.66171E-05;6.21042E-06
0.448293103;1.52743E-05;1.17494E-05
0.448758621;1.66171E-05;1.76242E-05
0.449224138;1.79599E-05;1.62814E-05
0.449689655;1.66171E-05;3.86053E-06
0.450155172;1.32601E-05;-7.38537E-06
0.45062069;1.05745E-05;-8.56031E-06
0.451086207;9.9031E-06;-1.84634E-06
0.451551724;9.23171E-06;6.54612E-06
0.452017241;7.72107E-06;1.51064E-05
0.452482759;5.87472E-06;2.09812E-05
0.452948276;3.86053E-06;2.13169E-05
0.453413793;8.39246E-07;1.29244E-05
0.45387931;-1.17494E-06;2.18204E-06
0.454344828;-3.02129E-06;-5.53903E-06
0.454810345;-5.20333E-06;-9.9031E-06
0.455275862;-7.21752E-06;-1.14137E-05
0.455741379;-8.22461E-06;-7.88891E-06
0.456206897;-7.88891E-06;-1.51064E-06
0.456672414;-5.87472E-06;4.53193E-06
0.457137931;-3.69268E-06;7.55322E-06
0.457603448;-8.39246E-07;1.15816E-05
0.458068966;3.86053E-06;1.76242E-05
0.458534483;1.2253E-05;2.23239E-05
0.459;1.94705E-05;2.53452E-05
0.459465517;2.26596E-05;2.65202E-05
0.459931034;2.51774E-05;2.4506E-05
0.460396552;2.60166E-05;2.13169E-05
0.460862069;2.70237E-05;2.03098E-05
0.461327586;2.76951E-05;2.23239E-05
0.461793103;2.90379E-05;2.61845E-05
0.462258621;2.90379E-05;2.80308E-05
0.462724138;2.73594E-05;2.53452E-05
0.463189655;2.60166E-05;2.3331E-05
0.463655172;2.29953E-05;2.3331E-05
0.46412069;2.06455E-05;2.73594E-05
0.464586207;1.99741E-05;3.20592E-05
0.465051724;2.26596E-05;3.27306E-05
0.465517241;2.43381E-05;2.98772E-05
0.465982759;2.23239E-05;2.3331E-05
0.466448276;2.06455E-05;1.66171E-05
0.466913793;1.84634E-05;1.04067E-05
0.46737931;1.64492E-05;5.03548E-06
0.467844828;1.51064E-05;-8.39246E-07
0.468310345;1.32601E-05;-2.18204E-06
0.468775862;1.05745E-05;-5.03548E-07
0.469241379;8.89601E-06;-8.39246E-07
0.469706897;6.37827E-06;-1.84634E-06
0.470172414;3.52483E-06;-2.18204E-06
0.470637931;3.52483E-06;-2.85344E-06
0.471103448;3.18914E-06;-8.56031E-06
0.471568966;8.39246E-07;-1.69528E-05
0.472034483;-1.51064E-06;-2.36667E-05
0.4725;-1.51064E-06;-2.09812E-05
0.472965517;-5.03548E-07;-1.29244E-05
0.473431034;-1.67849E-07;-1.09102E-05
0.473896552;-8.39246E-07;-1.62814E-05
0.474362069;-3.18914E-06;-2.53452E-05
0.474827586;-5.53903E-06;-3.07164E-05
0.475293103;-7.04967E-06;-3.17235E-05
0.475758621;-6.88182E-06;-2.83665E-05
0.476224138;-5.20333E-06;-2.36667E-05
0.476689655;-2.51774E-06;-1.71206E-05
0.477155172;-3.52483E-06;-9.56741E-06
0.47762069;-5.87472E-06;-1.67849E-07
0.478086207;-6.04257E-06;7.55322E-06
0.478551724;-3.52483E-06;1.59457E-05
0.479017241;-5.03548E-07;2.40024E-05
0.479482759;1.0071E-06;2.63523E-05
0.479948276;3.18914E-06;2.43381E-05
0.480413793;6.54612E-06;2.01419E-05
0.48087931;1.05745E-05;1.69528E-05
0.481344828;1.12459E-05;1.86313E-05
0.481810345;9.9031E-06;2.43381E-05
0.482275862;1.02388E-05;2.93736E-05
0.482741379;9.23171E-06;3.44091E-05
0.483206897;5.70687E-06;3.64233E-05
0.483672414;3.18914E-06;3.23949E-05
0.484137931;3.18914E-06;2.50095E-05
0.484603448;3.18914E-06;1.46029E-05
0.485068966;1.84634E-06;5.20333E-06
0.485534483;8.39246E-07;-1.67849E-07
0.486;5.03548E-07;5.03548E-07
0.486465517;2.01419E-06;3.86053E-06
0.486931034;4.86763E-06;6.21042E-06
0.487396552;5.87472E-06;5.53903E-06
0.487862069;5.87472E-06;4.53193E-06
0.488327586;6.88182E-06;4.53193E-06
0.488793103;9.23171E-06;4.86763E-06
0.489258621;1.09102E-05;4.19623E-06
0.489724138;1.25887E-05;2.51774E-06
0.490189655;1.46029E-05;1.51064E-06
0.490655172;1.52743E-05;-3.35698E-07
0.49112069;1.57778E-05;-2.85344E-06
0.491586207;1.561E-05;-5.70687E-06
0.492051724;1.49386E-05;-9.23171E-06
0.492517241;1.42672E-05;-9.56741E-06
0.492982759;1.46029E-05;-1.15816E-05
0.493448276;1.62814E-05;-1.49386E-05
0.493913793;1.86313E-05;-1.561E-05
0.49437931;1.93027E-05;-1.30922E-05
0.494844828;1.72885E-05;-1.29244E-05
0.495310345;1.57778E-05;-1.4435E-05
0.495775862;1.62814E-05;-1.49386E-05
0.496241379;1.59457E-05;-1.51064E-05
0.496706897;1.35958E-05;-1.62814E-05
0.497172414;1.12459E-05;-1.93027E-05
0.497637931;1.15816E-05;-2.16526E-05
0.498103448;1.32601E-05;-2.23239E-05
0.498568966;1.46029E-05;-2.3331E-05
0.499034483;1.25887E-05;-2.53452E-05
0.4995;1.09102E-05;-2.43381E-05
0.499965517;1.05745E-05;-1.96384E-05
0.500431034;1.12459E-05;-1.39315E-05
0.500896552;1.15816E-05;-1.17494E-05
0.501362069;1.17494E-05;-1.29244E-05
0.501827586;1.09102E-05;-1.19173E-05
0.502293103;1.19173E-05;-1.14137E-05
0.502758621;1.46029E-05;-1.09102E-05
0.503224138;1.561E-05;-8.56031E-06
0.503689655;1.59457E-05;-3.02129E-06
0.504155172;1.66171E-05;8.39246E-07
0.50462069;1.93027E-05;5.20333E-06
0.505086207;2.19883E-05;1.10781E-05
0.505551724;2.3331E-05;1.8967E-05
0.506017241;2.26596E-05;2.73594E-05
0.506482759;2.06455E-05;3.23949E-05
0.506948276;2.03098E-05;3.44091E-05
0.507413793;2.3331E-05;3.87732E-05
0.50787931;2.73594E-05;4.75013E-05
0.508344828;2.80308E-05;5.22011E-05
0.508810345;2.40024E-05;4.75013E-05
0.509275862;1.79599E-05;3.40734E-05
0.509741379;1.2253E-05;1.82956E-05
0.510206897;7.88891E-06;8.56031E-06
0.510672414;4.53193E-06;5.70687E-06
0.511137931;1.84634E-06;6.37827E-06
0.511603448;-1.17494E-06;8.56031E-06
0.512068966;-3.86053E-06;9.23171E-06
0.512534483;-4.53193E-06;7.55322E-06
0.513;-3.86053E-06;2.85344E-06
0.513465517;-3.52483E-06;1.67849E-07
0.513931034;-4.19623E-06;1.84634E-06
0.514396552;-4.53193E-06;1.84634E-06
0.514862069;-5.87472E-06;-1.51064E-06
0.515327586;-4.53193E-06;-3.69268E-06
0.515793103;-2.18204E-06;-4.86763E-06
0.516258621;-2.18204E-06;-4.19623E-06
0.516724138;-2.85344E-06;-4.19623E-06
0.517189655;-1.84634E-06;-3.52483E-06
0.517655172;-1.51064E-06;-2.18204E-06
0.51812069;-1.51064E-06;5.03548E-07
0.518586207;-3.35698E-07;2.18204E-06
0.519051724;3.35698E-07;4.86763E-06
0.519517241;1.67849E-06;1.12459E-05
0.519982759;5.53903E-06;1.79599E-05
0.520448276;1.02388E-05;1.99741E-05
0.520913793;1.29244E-05;1.59457E-05
0.52137931;1.29244E-05;9.56741E-06
0.521844828;1.05745E-05;5.87472E-06
0.522310345;7.04967E-06;6.21042E-06
0.522775862;6.21042E-06;9.23171E-06
0.523241379;8.22461E-06;1.52743E-05
0.523706897;1.05745E-05;2.03098E-05
0.524172414;1.29244E-05;2.19883E-05
0.524637931;1.52743E-05;2.06455E-05
0.525103448;1.62814E-05;1.86313E-05
0.525568966;1.64492E-05;1.79599E-05
0.526034483;1.64492E-05;1.76242E-05
0.5265;1.66171E-05;1.62814E-05
0.526965517;1.66171E-05;1.52743E-05
0.527431034;1.59457E-05;1.4435E-05
0.527896552;1.35958E-05;1.42672E-05
0.528362069;1.19173E-05;1.30922E-05
0.528827586;1.12459E-05;1.32601E-05
0.529293103;9.9031E-06;1.42672E-05
0.529758621;7.55322E-06;1.82956E-05
0.530224138;7.21752E-06;2.3331E-05
0.530689655;9.23171E-06;2.73594E-05
0.531155172;9.56741E-06;2.93736E-05
0.53162069;6.88182E-06;2.6688E-05
0.532086207;1.84634E-06;2.13169E-05
0.532551724;-1.51064E-06;1.561E-05
0.533017241;-3.52483E-06;6.54612E-06
0.533482759;-4.86763E-06;-1.51064E-06
0.533948276;-5.53903E-06;-6.04257E-06
0.534413793;-5.70687E-06;-8.22461E-06
0.53487931;-4.19623E-06;-8.22461E-06
0.535344828;-1.17494E-06;-4.86763E-06
0.535810345;3.52483E-06;-8.39246E-07
0.536275862;8.56031E-06;5.03548E-07
0.536741379;1.12459E-05;-2.85344E-06
0.537206897;1.09102E-05;-1.02388E-05
0.537672414;1.05745E-05;-1.49386E-05
0.538137931;1.05745E-05;-1.32601E-05
0.538603448;1.12459E-05;-7.55322E-06
0.539068966;1.05745E-05;-1.84634E-06
0.539534483;1.09102E-05;-1.67849E-07
0.54;1.12459E-05;-3.18914E-06
0.540465517;1.05745E-05;-9.23171E-06
0.540931034;9.9031E-06;-1.49386E-05
0.541396552;9.56741E-06;-1.93027E-05
0.541862069;7.88891E-06;-2.43381E-05
0.542327586;6.54612E-06;-2.70237E-05
0.542793103;7.55322E-06;-2.40024E-05
0.543258621;1.02388E-05;-1.69528E-05
0.543724138;1.25887E-05;-8.89601E-06
0.544189655;1.37636E-05;-8.39246E-07
0.544655172;1.32601E-05;9.23171E-06
0.54512069;1.39315E-05;1.72885E-05
0.545586207;1.72885E-05;2.13169E-05
0.546051724;1.96384E-05;2.23239E-05
0.546517241;2.09812E-05;2.13169E-05
0.546982759;2.3331E-05;1.39315E-05
0.547448276;2.26596E-05;5.53903E-06
0.547913793;1.99741E-05;4.19623E-06
0.54837931;1.8967E-05;6.88182E-06
0.548844828;1.86313E-05;5.87472E-06
0.549310345;1.86313E-05;6.21042E-06
0.549775862;1.99741E-05;7.55322E-06
0.550241379;2.06455E-05;8.22461E-06
0.550706897;1.93027E-05;8.56031E-06
0.551172414;1.52743E-05;9.9031E-06
0.551637931;9.9031E-06;9.23171E-06
0.552103448;4.86763E-06;7.72107E-06
0.552568966;2.18204E-06;9.56741E-06
0.553034483;-3.35698E-07;1.25887E-05
0.5535;-3.18914E-06;1.39315E-05
0.553965517;-6.21042E-06;1.4435E-05
0.554431034;-7.55322E-06;1.39315E-05
0.554896552;-5.53903E-06;1.62814E-05
0.555362069;-2.18204E-06;2.43381E-05
0.555827586;1.17494E-06;3.20592E-05
0.556293103;5.87472E-06;3.3402E-05
0.556758621;8.89601E-06;2.87022E-05
0.557224138;9.23171E-06;1.71206E-05
0.557689655;8.56031E-06;1.67849E-06
0.558155172;7.88891E-06;-9.9031E-06
0.55862069;7.55322E-06;-1.10781E-05
0.559086207;8.22461E-06;-7.55322E-06
0.559551724;7.72107E-06;-6.21042E-06
0.560017241;6.88182E-06;-7.55322E-06
0.560482759;6.54612E-06;-4.36408E-06
0.560948276;5.20333E-06;2.18204E-06
0.561413793;2.85344E-06;7.88891E-06
0.56187931;3.18914E-06;1.32601E-05
0.562344828;6.21042E-06;1.46029E-05
0.562810345;8.56031E-06;9.23171E-06
0.563275862;9.23171E-06;3.52483E-06
0.563741379;9.56741E-06;3.18914E-06
0.564206897;8.56031E-06;4.86763E-06
0.564672414;7.21752E-06;6.21042E-06
0.565137931;5.87472E-06;2.85344E-06
0.565603448;3.86053E-06;-7.88891E-06
0.566068966;2.18204E-06;-2.40024E-05
0.566534483;2.18204E-06;-3.57519E-05
0.567;3.18914E-06;-3.6759E-05
0.567465517;5.20333E-06;-3.18914E-05
0.567931034;7.21752E-06;-2.51774E-05
0.568396552;8.89601E-06;-1.69528E-05
0.568862069;1.05745E-05;-1.04067E-05
0.569327586;1.39315E-05;-6.88182E-06
0.569793103;1.62814E-05;-5.53903E-06
0.570258621;1.561E-05;-4.86763E-06
0.570724138;1.35958E-05;-7.38537E-06
0.571189655;1.52743E-05;-1.12459E-05
0.571655172;1.8967E-05;-1.49386E-05
0.57212069;1.96384E-05;-1.79599E-05
0.572586207;1.86313E-05;-1.93027E-05
0.573051724;1.86313E-05;-1.69528E-05
0.573517241;1.72885E-05;-1.35958E-05
0.573982759;1.32601E-05;-1.25887E-05
0.574448276;9.9031E-06;-1.19173E-05
0.574913793;8.89601E-06;-9.06386E-06
0.57537931;1.19173E-05;-5.03548E-06
0.575844828;1.42672E-05;-2.85344E-06
0.576310345;1.32601E-05;-2.18204E-06
0.576775862;1.09102E-05;-1.0071E-06
0.577241379;9.23171E-06;1.84634E-06
0.577706897;1.02388E-05;5.20333E-06
0.578172414;1.05745E-05;7.55322E-06
0.578637931;1.09102E-05;9.56741E-06
0.579103448;1.25887E-05;1.25887E-05
0.579568966;1.52743E-05;1.66171E-05
0.580034483;1.59457E-05;2.03098E-05
0.5805;1.46029E-05;2.06455E-05
0.580965517;1.19173E-05;1.17494E-05
0.581431034;1.05745E-05;-2.51774E-06
0.581896552;9.9031E-06;-1.15816E-05
0.582362069;9.56741E-06;-8.89601E-06
0.582827586;9.9031E-06;-1.84634E-06
0.583293103;1.02388E-05;1.84634E-06
0.583758621;1.02388E-05;1.84634E-06
0.584224138;8.89601E-06;1.17494E-06
0.584689655;7.21752E-06;8.39246E-07
0.585155172;5.87472E-06;3.35698E-07
0.58562069;5.20333E-06;1.17494E-06
0.586086207;7.55322E-06;3.18914E-06
0.586551724;1.02388E-05;4.53193E-06
0.587017241;1.09102E-05;4.36408E-06
0.587482759;1.12459E-05;5.53903E-06
0.587948276;1.25887E-05;1.04067E-05
0.588413793;1.25887E-05;1.32601E-05
0.58887931;1.25887E-05;1.49386E-05
0.589344828;1.15816E-05;1.59457E-05
0.589810345;9.56741E-06;1.72885E-05
0.590275862;1.05745E-05;1.94705E-05
0.590741379;1.09102E-05;1.99741E-05
0.591206897;9.56741E-06;1.8967E-05
0.591672414;7.55322E-06;1.86313E-05
0.592137931;8.22461E-06;1.99741E-05
0.592603448;1.02388E-05;1.93027E-05
0.593068966;1.15816E-05;1.7792E-05
0.593534483;1.10781E-05;1.7792E-05
0.594;1.12459E-05;1.79599E-05
0.594465517;1.19173E-05;1.84634E-05
0.594931034;1.15816E-05;1.79599E-05
0.595396552;1.02388E-05;1.86313E-05
0.595862069;1.15816E-05;1.93027E-05
0.596327586;1.35958E-05;1.84634E-05
0.596793103;1.35958E-05;1.93027E-05
0.597258621;1.15816E-05;2.06455E-05
0.597724138;9.56741E-06;1.96384E-05
0.598189655;9.9031E-06;2.06455E-05
0.598655172;9.56741E-06;2.36667E-05
0.59912069;8.56031E-06;2.51774E-05
0.599586207;7.55322E-06;2.43381E-05
0.600051724;5.20333E-06;2.13169E-05
0.600517241;1.84634E-06;1.84634E-05
0.600982759;1.67849E-07;1.86313E-05
0.601448276;5.03548E-07;1.93027E-05
0.601913793;-8.39246E-07;1.82956E-05
0.60237931;-1.51064E-06;1.561E-05
0.602844828;-2.51774E-06;1.19173E-05
0.603310345;-4.36408E-06;1.05745E-05
0.603775862;-7.04967E-06;1.15816E-05
0.604241379;-7.55322E-06;1.25887E-05
0.604706897;-6.54612E-06;1.09102E-05
0.605172414;-5.87472E-06;7.88891E-06
0.605637931;-4.19623E-06;6.21042E-06
0.606103448;-1.17494E-06;3.18914E-06
0.606568966;8.39246E-07;1.17494E-06
0.607034483;2.51774E-06;2.51774E-06
0.6075;5.87472E-06;3.18914E-06
0.607965517;9.06386E-06;3.18914E-06
0.608431034;1.02388E-05;1.84634E-06
0.608896552;1.19173E-05;2.18204E-06
0.609362069;1.51064E-05;3.86053E-06
0.609827586;1.7792E-05;5.03548E-06
0.610293103;1.98062E-05;5.87472E-06
0.610758621;2.09812E-05;7.88891E-06
0.611224138;2.13169E-05;1.02388E-05
0.611689655;1.99741E-05;1.25887E-05
0.612155172;1.82956E-05;1.561E-05
0.61262069;1.59457E-05;1.46029E-05
0.613086207;1.4435E-05;1.19173E-05
0.613551724;1.32601E-05;1.05745E-05
0.614017241;1.12459E-05;8.89601E-06
0.614482759;9.9031E-06;6.88182E-06
0.614948276;8.56031E-06;7.04967E-06
0.615413793;7.55322E-06;3.86053E-06
0.61587931;6.54612E-06;-1.67849E-07
0.616344828;7.55322E-06;1.67849E-07
0.616810345;9.56741E-06;5.87472E-06
0.617275862;1.09102E-05;1.49386E-05
0.617741379;1.19173E-05;2.16526E-05
0.618206897;1.17494E-05;2.40024E-05
0.618672414;1.05745E-05;2.60166E-05
0.619137931;1.05745E-05;2.80308E-05
0.619603448;1.19173E-05;2.65202E-05
0.620068966;1.39315E-05;2.06455E-05
0.620534483;1.25887E-05;1.64492E-05
0.621;9.23171E-06;1.4435E-05
0.621465517;6.88182E-06;1.29244E-05
0.621931034;8.22461E-06;1.19173E-05
0.622396552;9.9031E-06;1.29244E-05
0.622862069;9.23171E-06;1.15816E-05
0.623327586;8.89601E-06;7.21752E-06
0.623793103;9.23171E-06;2.51774E-06
0.624258621;1.05745E-05;1.17494E-06
0.624724138;1.25887E-05;1.17494E-06
0.625189655;1.42672E-05;1.0071E-06
0.625655172;1.39315E-05;-8.39246E-07
0.62612069;1.29244E-05;1.67849E-07
0.626586207;1.37636E-05;2.18204E-06
0.627051724;1.46029E-05;1.17494E-06
0.627517241;1.39315E-05;-2.51774E-06
0.627982759;1.25887E-05;-6.21042E-06
0.628448276;1.09102E-05;-1.2253E-05
0.628913793;7.88891E-06;-1.93027E-05
0.62937931;7.21752E-06;-2.09812E-05
0.629844828;9.56741E-06;-1.72885E-05
0.630310345;1.10781E-05;-1.12459E-05
0.630775862;1.09102E-05;-3.18914E-06
0.631241379;1.12459E-05;7.04967E-06
0.631706897;1.02388E-05;1.66171E-05
0.632172414;8.22461E-06;2.13169E-05
0.632637931;7.21752E-06;2.09812E-05
0.633103448;7.55322E-06;1.82956E-05
0.633568966;9.9031E-06;1.79599E-05
0.634034483;1.15816E-05;1.82956E-05
0.6345;1.19173E-05;1.52743E-05
0.634965517;1.17494E-05;6.54612E-06
0.635431034;1.05745E-05;-3.02129E-06
0.635896552;9.73526E-06;-7.21752E-06
0.636362069;6.54612E-06;-6.21042E-06
0.636827586;5.87472E-06;2.18204E-06
0.637293103;6.54612E-06;1.12459E-05
0.637758621;4.53193E-06;8.22461E-06
0.638224138;-1.51064E-06;-7.04967E-06
0.638689655;-8.89601E-06;-2.23239E-05
0.639155172;-1.40993E-05;-3.10521E-05
0.63962069;-1.62814E-05;-3.47448E-05
0.640086207;-1.49386E-05;-3.5584E-05
0.640551724;-1.19173E-05;-3.44091E-05
0.641017241;-1.25887E-05;-3.37377E-05
0.641482759;-1.35958E-05;-3.64233E-05
0.641948276;-1.35958E-05;-4.24659E-05
0.642413793;-1.42672E-05;-4.58228E-05
0.64287931;-1.35958E-05;-4.0116E-05
0.643344828;-1.15816E-05;-2.93736E-05
0.643810345;-9.73526E-06;-1.82956E-05
0.644275862;-7.88891E-06;-1.02388E-05
0.644741379;-6.21042E-06;-5.87472E-06
0.645206897;-4.53193E-06;-4.19623E-06
0.645672414;1.67849E-07;-2.85344E-06
0.646137931;6.88182E-06;3.35698E-07
0.646603448;1.12459E-05;5.87472E-06
0.647068966;1.37636E-05;1.12459E-05
0.647534483;1.561E-05;1.561E-05
0.648;1.8967E-05;1.79599E-05
0.648465517;2.29953E-05;2.06455E-05
0.648931034;2.51774E-05;2.46738E-05
0.649396552;2.26596E-05;2.53452E-05
0.649862069;1.99741E-05;2.36667E-05
0.650327586;2.09812E-05;2.13169E-05
0.650793103;2.3331E-05;1.99741E-05
0.651258621;2.3331E-05;2.04776E-05
0.651724138;2.18204E-05;2.43381E-05
0.652189655;2.06455E-05;2.65202E-05
0.652655172;1.8967E-05;2.26596E-05
0.65312069;1.72885E-05;1.76242E-05
0.653586207;1.66171E-05;1.52743E-05
0.654051724;1.79599E-05;1.79599E-05
0.654517241;1.93027E-05;2.18204E-05
0.654982759;1.79599E-05;2.23239E-05
0.655448276;1.32601E-05;1.99741E-05
0.655913793;7.88891E-06;1.86313E-05
0.65637931;6.37827E-06;1.93027E-05
0.656844828;8.56031E-06;2.18204E-05
0.657310345;1.17494E-05;2.61845E-05
0.657775862;1.2253E-05;2.93736E-05
0.658241379;1.12459E-05;2.87022E-05
0.658706897;1.05745E-05;2.56809E-05
0.659172414;1.05745E-05;2.46738E-05
0.659637931;1.2253E-05;2.60166E-05
0.660103448;1.39315E-05;2.73594E-05
0.660568966;1.35958E-05;2.75273E-05
0.661034483;1.32601E-05;2.53452E-05
0.6615;1.46029E-05;1.98062E-05
0.661965517;1.42672E-05;7.72107E-06
0.662431034;1.12459E-05;-9.9031E-06
0.662896552;7.88891E-06;-2.87022E-05
0.663362069;6.54612E-06;-3.81018E-05
0.663827586;7.88891E-06;-3.32342E-05
0.664293103;1.25887E-05;-1.72885E-05
0.664758621;1.69528E-05;-1.67849E-07
0.665224138;1.91348E-05;8.89601E-06
0.665689655;1.86313E-05;8.89601E-06
0.666155172;1.66171E-05;3.86053E-06
0.66662069;1.39315E-05;-4.19623E-06
0.667086207;9.9031E-06;-1.2253E-05
0.667551724;5.20333E-06;-1.39315E-05
0.668017241;3.69268E-06;-1.05745E-05
0.668482759;4.86763E-06;-8.22461E-06
0.668948276;5.20333E-06;-7.72107E-06
0.669413793;4.53193E-06;-1.09102E-05
0.66987931;3.18914E-06;-1.62814E-05
0.670344828;5.03548E-07;-2.06455E-05
0.670810345;-1.84634E-06;-1.8967E-05
0.671275862;-3.52483E-06;-1.35958E-05
0.671741379;-4.19623E-06;-1.15816E-05
0.672206897;-3.52483E-06;-1.35958E-05
0.672672414;-2.85344E-06;-1.49386E-05
0.673137931;-1.84634E-06;-1.35958E-05
0.673603448;-1.51064E-06;-1.2253E-05
0.674068966;-1.67849E-07;-1.05745E-05
0.674534483;1.84634E-06;-6.88182E-06
0.675;2.85344E-06;-4.86763E-06
0.675465517;3.86053E-06;-3.69268E-06
0.675931034;5.20333E-06;-1.51064E-06
0.676396552;7.88891E-06;1.84634E-06
0.676862069;9.06386E-06;5.03548E-06
0.677327586;1.05745E-05;4.86763E-06
0.677793103;1.32601E-05;3.86053E-06
0.678258621;1.42672E-05;5.20333E-06
0.678724138;1.12459E-05;7.55322E-06
0.679189655;9.23171E-06;7.88891E-06
0.679655172;9.23171E-06;5.87472E-06
0.68012069;1.02388E-05;4.36408E-06
0.680586207;9.56741E-06;6.21042E-06
0.681051724;9.9031E-06;8.89601E-06
0.681517241;1.2253E-05;8.56031E-06
0.681982759;1.561E-05;5.70687E-06
0.682448276;1.72885E-05;2.51774E-06
0.682913793;1.67849E-05;1.17494E-06
0.68337931;1.561E-05;3.18914E-06
0.683844828;1.35958E-05;3.86053E-06
0.684310345;1.15816E-05;4.53193E-06
0.684775862;1.25887E-05;5.70687E-06
0.685241379;1.29244E-05;6.54612E-06
0.685706897;1.04067E-05;6.88182E-06
0.686172414;9.9031E-06;8.56031E-06
0.686637931;1.09102E-05;9.56741E-06
0.687103448;1.25887E-05;8.56031E-06
0.687568966;1.561E-05;8.22461E-06
0.688034483;1.86313E-05;9.23171E-06
0.6885;2.09812E-05;9.23171E-06
0.688965517;2.1149E-05;1.05745E-05
0.689431034;1.99741E-05;1.25887E-05
0.689896552;1.82956E-05;1.32601E-05
0.690362069;1.64492E-05;1.12459E-05
0.690827586;1.52743E-05;9.06386E-06
0.691293103;1.37636E-05;7.04967E-06
0.691758621;1.32601E-05;6.04257E-06
0.692224138;1.561E-05;5.70687E-06
0.692689655;1.66171E-05;5.87472E-06
0.693155172;1.52743E-05;4.19623E-06
0.69362069;1.32601E-05;1.17494E-06
0.694086207;1.25887E-05;-3.35698E-07
0.694551724;1.37636E-05;1.67849E-07
0.695017241;1.46029E-05;1.17494E-06
0.695482759;1.42672E-05;3.52483E-06
0.695948276;1.19173E-05;4.36408E-06
0.696413793;9.9031E-06;2.51774E-06
0.69687931;1.04067E-05;3.52483E-06
0.697344828;9.9031E-06;3.86053E-06
0.697810345;9.06386E-06;3.52483E-06
0.698275862;9.23171E-06;3.52483E-06
0.698741379;8.56031E-06;5.53903E-06
0.699206897;6.54612E-06;7.72107E-06
0.699672414;3.18914E-06;6.54612E-06
0.700137931;8.39246E-07;3.02129E-06
0.700603448;-1.67849E-07;1.84634E-06
0.701068966;-1.67849E-07;1.17494E-06
0.701534483;1.67849E-07;-8.39246E-07
0.702;2.51774E-06;-1.51064E-06
0.702465517;6.54612E-06;3.35698E-07
0.702931034;6.54612E-06;1.0071E-06
0.703396552;3.18914E-06;-5.03548E-07
0.703862069;1.84634E-06;-5.03548E-07
0.704327586;3.86053E-06;1.84634E-06
0.704793103;5.53903E-06;3.18914E-06
0.705258621;4.36408E-06;3.69268E-06
0.705724138;3.18914E-06;3.18914E-06
0.706189655;4.19623E-06;2.51774E-06
0.706655172;5.03548E-06;2.85344E-06
0.70712069;4.53193E-06;5.20333E-06
0.707586207;3.86053E-06;9.23171E-06
0.708051724;3.52483E-06;1.24208E-05
0.708517241;3.86053E-06;1.46029E-05
0.708982759;3.69268E-06;1.59457E-05
0.709448276;3.86053E-06;1.62814E-05
0.709913793;4.86763E-06;1.25887E-05
0.71037931;4.53193E-06;7.21752E-06
0.710844828;3.18914E-06;3.52483E-06
0.711310345;1.84634E-06;1.67849E-07
0.711775862;1.17494E-06;-2.51774E-06
0.712241379;5.03548E-07;-4.86763E-06
0.712706897;5.03548E-07;-7.72107E-06
0.713172414;1.17494E-06;-8.56031E-06
0.713637931;2.51774E-06;-7.72107E-06
0.714103448;4.53193E-06;-5.53903E-06
0.714568966;7.21752E-06;-2.18204E-06
0.715034483;8.39246E-06;2.18204E-06
0.7155;9.56741E-06;4.53193E-06
0.715965517;9.73526E-06;4.19623E-06
0.716431034;9.9031E-06;2.18204E-06
0.716896552;1.05745E-05;1.17494E-06
0.717362069;1.17494E-05;1.17494E-06
0.717827586;1.25887E-05;1.17494E-06
0.718293103;1.29244E-05;1.67849E-07
0.718758621;1.25887E-05;3.35698E-07
0.719224138;1.19173E-05;4.53193E-06
0.719689655;1.12459E-05;1.04067E-05
0.720155172;1.15816E-05;1.46029E-05
0.72062069;1.24208E-05;1.57778E-05
0.721086207;1.25887E-05;1.62814E-05
0.721551724;1.15816E-05;1.62814E-05
0.722017241;1.12459E-05;1.59457E-05
0.722482759;1.25887E-05;1.86313E-05
0.722948276;1.25887E-05;2.40024E-05
0.723413793;1.19173E-05;3.122E-05
0.72387931;1.17494E-05;3.60876E-05
0.724344828;1.12459E-05;3.65911E-05
0.724810345;9.23171E-06;3.54162E-05
0.725275862;8.56031E-06;3.30663E-05
0.725741379;9.56741E-06;3.13878E-05
0.726206897;1.05745E-05;3.07164E-05
0.726672414;1.12459E-05;3.03807E-05
0.727137931;1.05745E-05;2.90379E-05
0.727603448;9.23171E-06;2.60166E-05
0.728068966;8.89601E-06;2.09812E-05
0.728534483;7.21752E-06;1.25887E-05
0.729;5.20333E-06;4.19623E-06
0.729465517;3.86053E-06;8.39246E-07
0.729931034;3.86053E-06;-8.39246E-07
0.730396552;3.86053E-06;-4.53193E-06
0.730862069;2.18204E-06;-6.37827E-06
0.731327586;3.18914E-06;-4.69978E-06
0.731793103;6.54612E-06;-1.51064E-06
0.732258621;8.22461E-06;-2.18204E-06
0.732724138;7.21752E-06;-5.53903E-06
0.733189655;6.37827E-06;-4.19623E-06
0.733655172;6.88182E-06;1.67849E-07
0.73412069;8.39246E-06;2.18204E-06
0.734586207;9.23171E-06;1.17494E-06
0.735051724;8.56031E-06;-2.85344E-06
0.735517241;9.23171E-06;-8.89601E-06
0.735982759;1.09102E-05;-1.62814E-05
0.736448276;1.09102E-05;-2.1149E-05
0.736913793;8.56031E-06;-2.16526E-05
0.73737931;6.54612E-06;-1.76242E-05
0.737844828;7.21752E-06;-1.25887E-05
0.738310345;9.9031E-06;-7.72107E-06
0.738775862;1.32601E-05;-3.86053E-06
0.739241379;1.32601E-05;-2.34989E-06
0.739706897;1.12459E-05;-3.52483E-06
0.740172414;9.9031E-06;-3.18914E-06
0.740637931;1.12459E-05;-1.0071E-06
0.741103448;1.25887E-05;-1.67849E-07
0.741568966;1.25887E-05;-1.67849E-06
0.742034483;1.14137E-05;-4.86763E-06
0.7425;1.24208E-05;-5.53903E-06
0.742965517;1.52743E-05;-3.86053E-06
0.743431034;1.86313E-05;-1.51064E-06
0.743896552;1.93027E-05;-1.67849E-07
0.744362069;1.93027E-05;-1.67849E-07
0.744827586;1.8967E-05;1.84634E-06
0.745293103;1.72885E-05;3.52483E-06
0.745758621;1.52743E-05;2.18204E-06
0.746224138;1.32601E-05;5.03548E-07
0.746689655;1.29244E-05;4.19623E-06
0.747155172;1.30922E-05;1.02388E-05
0.74762069;1.39315E-05;1.46029E-05
0.748086207;1.561E-05;1.66171E-05
0.748551724;1.69528E-05;2.21561E-05
0.749017241;1.62814E-05;2.56809E-05
0.749482759;1.42672E-05;1.93027E-05
0.749948276;1.10781E-05;6.54612E-06
0.750413793;9.23171E-06;-5.03548E-07
0.75087931;9.56741E-06;2.51774E-06
0.751344828;1.02388E-05;8.56031E-06
0.751810345;1.02388E-05;9.06386E-06
0.752275862;1.09102E-05;6.37827E-06
0.752741379;1.42672E-05;9.9031E-06
0.753206897;1.52743E-05;1.72885E-05
0.753672414;1.72885E-05;2.50095E-05
0.754137931;1.86313E-05;2.80308E-05
0.754603448;1.69528E-05;2.63523E-05
0.755068966;1.42672E-05;2.40024E-05
0.755534483;1.32601E-05;2.46738E-05
0.756;1.4435E-05;2.50095E-05
0.756465517;1.39315E-05;2.16526E-05
0.756931034;1.15816E-05;1.39315E-05
0.757396552;7.72107E-06;5.20333E-06
0.757862069;3.86053E-06;-3.35698E-07
0.758327586;1.84634E-06;-2.18204E-06
0.758793103;1.84634E-06;-1.17494E-06
0.759258621;1.17494E-06;-2.51774E-06
0.759724138;-2.34989E-06;-9.73526E-06
0.760189655;-6.21042E-06;-2.19883E-05
0.760655172;-8.89601E-06;-3.77661E-05
0.76112069;-1.10781E-05;-5.4551E-05
0.761586207;-1.32601E-05;-6.36149E-05
0.762051724;-1.40993E-05;-6.05936E-05
0.762517241;-1.19173E-05;-4.7837E-05
0.762982759;-8.22461E-06;-3.13878E-05
0.763448276;-2.85344E-06;-1.561E-05
0.763913793;-1.67849E-07;-1.84634E-06
0.76437931;1.17494E-06;9.9031E-06
0.764844828;2.51774E-06;1.86313E-05
0.765310345;4.86763E-06;2.06455E-05
0.765775862;6.37827E-06;1.71206E-05
0.766241379;5.87472E-06;1.24208E-05
0.766706897;3.35698E-06;6.54612E-06
0.767172414;5.03548E-07;4.19623E-06
0.767637931;8.39246E-07;5.87472E-06
0.768103448;1.84634E-06;1.04067E-05
0.768568966;1.17494E-06;1.561E-05
0.769034483;1.67849E-07;1.82956E-05
0.7695;2.51774E-06;1.86313E-05
0.769965517;6.88182E-06;1.72885E-05
0.770431034;9.56741E-06;1.91348E-05
0.770896552;9.9031E-06;2.13169E-05
0.771362069;9.23171E-06;1.99741E-05
0.771827586;9.56741E-06;1.79599E-05
0.772293103;1.14137E-05;1.79599E-05
0.772758621;1.32601E-05;1.99741E-05
0.773224138;1.46029E-05;2.26596E-05
0.773689655;1.57778E-05;2.3331E-05
0.774155172;1.64492E-05;2.18204E-05
0.77462069;1.59457E-05;2.06455E-05
0.775086207;1.561E-05;1.91348E-05
0.775551724;1.59457E-05;1.72885E-05
0.776017241;1.59457E-05;1.62814E-05
0.776482759;1.561E-05;1.39315E-05
0.776948276;1.35958E-05;1.12459E-05
0.777413793;1.19173E-05;1.12459E-05
0.77787931;1.35958E-05;1.2253E-05
0.778344828;1.561E-05;1.2253E-05
0.778810345;1.64492E-05;1.19173E-05
0.779275862;1.66171E-05;9.56741E-06
0.779741379;1.62814E-05;6.54612E-06
0.780206897;1.4435E-05;5.20333E-06
0.780672414;1.15816E-05;5.87472E-06
0.781137931;1.04067E-05;7.21752E-06
0.781603448;1.12459E-05;7.88891E-06
0.782068966;1.19173E-05;8.22461E-06
0.782534483;1.09102E-05;9.23171E-06
0.783;9.56741E-06;9.56741E-06
0.783465517;8.56031E-06;9.23171E-06
0.783931034;7.21752E-06;9.23171E-06
0.784396552;4.86763E-06;8.89601E-06
0.784862069;2.85344E-06;7.72107E-06
0.785327586;3.18914E-06;6.54612E-06
0.785793103;3.86053E-06;6.37827E-06
0.786258621;3.86053E-06;6.88182E-06
0.786724138;3.18914E-06;8.89601E-06
0.787189655;2.51774E-06;1.09102E-05
0.787655172;2.51774E-06;1.12459E-05
0.78812069;4.53193E-06;1.17494E-05
0.788586207;7.88891E-06;1.25887E-05
0.789051724;1.05745E-05;1.30922E-05
0.789517241;1.12459E-05;1.12459E-05
0.789982759;9.9031E-06;8.56031E-06
0.790448276;8.22461E-06;6.54612E-06
0.790913793;7.72107E-06;5.53903E-06
0.79137931;7.04967E-06;6.54612E-06
0.791844828;7.55322E-06;6.21042E-06
0.792310345;9.23171E-06;6.54612E-06
0.792775862;1.09102E-05;8.22461E-06
0.793241379;1.19173E-05;9.23171E-06
0.793706897;1.32601E-05;9.56741E-06
0.794172414;1.19173E-05;7.72107E-06
0.794637931;1.05745E-05;4.86763E-06
0.795103448;9.73526E-06;-1.67849E-07
0.795568966;9.06386E-06;-4.19623E-06
0.796034483;7.88891E-06;-8.22461E-06
0.7965;6.54612E-06;-1.14137E-05
0.796965517;5.20333E-06;-1.15816E-05
0.797431034;4.19623E-06;-1.05745E-05
0.797896552;4.53193E-06;-9.56741E-06
0.798362069;5.20333E-06;-8.22461E-06
0.798827586;5.20333E-06;-7.72107E-06
0.799293103;3.18914E-06;-9.9031E-06
0.799758621;3.18914E-06;-1.2253E-05
0.800224138;3.18914E-06;-1.35958E-05
0.800689655;2.34989E-06;-1.15816E-05
0.801155172;1.17494E-06;-8.89601E-06
0.80162069;5.03548E-07;-7.21752E-06
0.802086207;2.51774E-06;-7.55322E-06
0.802551724;4.86763E-06;-7.88891E-06
0.803017241;4.53193E-06;-8.22461E-06
0.803482759;4.53193E-06;-8.22461E-06
0.803948276;5.87472E-06;-8.56031E-06
0.804413793;7.88891E-06;-7.21752E-06
0.80487931;1.05745E-05;-2.85344E-06
0.805344828;1.25887E-05;3.02129E-06
0.805810345;1.32601E-05;7.88891E-06
0.806275862;1.17494E-05;1.02388E-05
0.806741379;8.56031E-06;9.23171E-06
0.807206897;6.21042E-06;7.55322E-06
0.807672414;5.87472E-06;5.87472E-06
0.808137931;7.21752E-06;4.36408E-06
0.808603448;8.22461E-06;3.02129E-06
0.809068966;8.56031E-06;4.53193E-06
0.809534483;9.23171E-06;6.21042E-06
0.81;1.05745E-05;7.21752E-06
0.810465517;1.25887E-05;7.88891E-06
0.810931034;1.2253E-05;5.87472E-06
0.811396552;9.06386E-06;2.18204E-06
0.811862069;6.54612E-06;-1.51064E-06
0.812327586;6.54612E-06;-3.18914E-06
0.812793103;8.89601E-06;-3.52483E-06
0.813258621;1.02388E-05;-3.69268E-06
0.813724138;1.02388E-05;-7.04967E-06
0.814189655;9.9031E-06;-1.19173E-05
0.814655172;1.12459E-05;-1.62814E-05
0.81512069;1.39315E-05;-1.76242E-05
0.815586207;1.76242E-05;-1.35958E-05
0.816051724;1.99741E-05;-8.56031E-06
0.816517241;1.86313E-05;-5.53903E-06
0.816982759;1.72885E-05;-3.69268E-06
0.817448276;1.561E-05;1.17494E-06
0.817913793;1.66171E-05;6.54612E-06
0.81837931;1.93027E-05;1.15816E-05
0.818844828;1.96384E-05;1.27565E-05
0.819310345;1.69528E-05;9.56741E-06
0.819775862;1.42672E-05;6.21042E-06
0.820241379;1.46029E-05;8.22461E-06
0.820706897;1.66171E-05;1.52743E-05
0.821172414;1.72885E-05;2.23239E-05
0.821637931;1.79599E-05;2.87022E-05
0.822103448;1.82956E-05;3.10521E-05
0.822568966;1.69528E-05;3.3402E-05
0.823034483;1.42672E-05;4.17945E-05
0.8235;1.10781E-05;5.33761E-05
0.823965517;6.88182E-06;5.82437E-05
0.824431034;1.84634E-06;4.66621E-05
0.824896552;-3.35698E-06;2.40024E-05
0.825362069;-6.88182E-06;2.18204E-06
0.825827586;-7.38537E-06;-1.19173E-05
0.826293103;-6.88182E-06;-1.96384E-05
0.826758621;-5.20333E-06;-2.36667E-05
0.827224138;-4.19623E-06;-2.43381E-05
0.827689655;-3.02129E-06;-2.1149E-05
0.828155172;-2.18204E-06;-1.52743E-05
0.82862069;1.17494E-06;-5.53903E-06
0.829086207;5.87472E-06;4.86763E-06
0.829551724;7.88891E-06;1.32601E-05
0.830017241;7.88891E-06;1.99741E-05
0.830482759;9.23171E-06;2.40024E-05
0.830948276;1.25887E-05;2.56809E-05
0.831413793;1.39315E-05;2.38346E-05
0.83187931;1.25887E-05;1.93027E-05
0.832344828;1.14137E-05;1.25887E-05
0.832810345;9.9031E-06;4.86763E-06
0.833275862;9.23171E-06;-1.0071E-06
0.833741379;8.39246E-06;-6.54612E-06
0.834206897;5.70687E-06;-8.22461E-06
0.834672414;3.18914E-06;-4.69978E-06
0.835137931;3.86053E-06;-2.34989E-06
0.835603448;6.54612E-06;-3.18914E-06
0.836068966;8.56031E-06;-4.19623E-06
0.836534483;9.56741E-06;-6.21042E-06
0.837;9.9031E-06;-8.39246E-06
0.837465517;8.56031E-06;-9.9031E-06
0.837931034;7.55322E-06;-1.09102E-05
0.838396552;6.54612E-06;-1.29244E-05
0.838862069;5.87472E-06;-1.49386E-05
0.839327586;6.54612E-06;-1.62814E-05
0.839793103;8.56031E-06;-1.35958E-05
0.840258621;1.19173E-05;-1.09102E-05
0.840724138;1.32601E-05;-1.10781E-05
0.841189655;1.15816E-05;-1.19173E-05
0.841655172;9.56741E-06;-1.25887E-05
0.84212069;8.89601E-06;-1.04067E-05
0.842586207;9.9031E-06;-6.04257E-06
0.843051724;9.23171E-06;-2.51774E-06
0.843517241;8.56031E-06;1.17494E-06
0.843982759;8.89601E-06;5.03548E-06
0.844448276;1.05745E-05;8.56031E-06
0.844913793;1.46029E-05;1.02388E-05
0.84537931;1.86313E-05;1.40993E-05
0.845844828;2.16526E-05;1.82956E-05
0.846310345;2.40024E-05;2.13169E-05
0.846775862;2.46738E-05;2.40024E-05
0.847241379;2.53452E-05;2.65202E-05
0.847706897;2.63523E-05;2.6688E-05
0.848172414;2.53452E-05;2.53452E-05
0.848637931;2.46738E-05;2.40024E-05
0.849103448;2.40024E-05;2.53452E-05
0.849568966;2.40024E-05;2.63523E-05
0.850034483;2.16526E-05;2.50095E-05
0.8505;1.79599E-05;1.96384E-05
0.850965517;1.32601E-05;1.04067E-05
0.851431034;1.02388E-05;3.18914E-06
0.851896552;8.56031E-06;1.17494E-06
0.852362069;7.72107E-06;1.67849E-07
0.852827586;7.55322E-06;-4.19623E-06
0.853293103;6.21042E-06;-8.22461E-06
0.853758621;5.20333E-06;-8.89601E-06
0.854224138;5.20333E-06;-5.87472E-06
0.854689655;6.54612E-06;1.0071E-06
0.855155172;6.88182E-06;6.21042E-06
0.85562069;7.21752E-06;6.54612E-06
0.856086207;7.21752E-06;-2.85344E-06
0.856551724;3.86053E-06;-1.69528E-05
0.857017241;-2.18204E-06;-2.50095E-05
0.857482759;-3.52483E-06;-2.26596E-05
0.857948276;1.67849E-07;-1.29244E-05
0.858413793;4.19623E-06;-5.70687E-06
0.85887931;5.03548E-06;-2.85344E-06
0.859344828;4.86763E-06;-2.51774E-06
0.859810345;5.20333E-06;-3.86053E-06
0.860275862;5.87472E-06;-4.19623E-06
0.860741379;7.21752E-06;5.03548E-07
0.861206897;8.56031E-06;5.20333E-06
0.861672414;7.88891E-06;6.21042E-06
0.862137931;7.88891E-06;5.70687E-06
0.862603448;7.88891E-06;9.56741E-06
0.863068966;7.38537E-06;1.72885E-05
0.863534483;8.39246E-06;2.18204E-05
0.864;9.06386E-06;2.26596E-05
0.864465517;8.56031E-06;2.4506E-05
0.864931034;7.72107E-06;2.93736E-05
0.865396552;7.21752E-06;3.122E-05
0.865862069;8.56031E-06;2.56809E-05
0.866327586;9.23171E-06;1.91348E-05
0.866793103;1.0071E-05;1.32601E-05
0.867258621;1.04067E-05;8.39246E-06
0.867724138;8.56031E-06;6.54612E-06
0.868189655;5.03548E-06;7.21752E-06
0.868655172;3.86053E-06;7.88891E-06
0.86912069;5.53903E-06;7.88891E-06
0.869586207;7.88891E-06;8.56031E-06
0.870051724;8.56031E-06;7.72107E-06
0.870517241;9.06386E-06;3.86053E-06
0.870982759;9.23171E-06;1.67849E-06
0.871448276;9.23171E-06;1.67849E-07
0.871913793;8.89601E-06;-3.52483E-06
0.87237931;8.89601E-06;-5.53903E-06
0.872844828;8.89601E-06;-3.86053E-06
0.873310345;1.12459E-05;1.17494E-06
0.873775862;1.35958E-05;9.23171E-06
0.874241379;1.32601E-05;1.51064E-05
0.874706897;1.15816E-05;1.49386E-05
0.875172414;7.55322E-06;1.39315E-05
0.875637931;4.19623E-06;1.35958E-05
0.876103448;1.84634E-06;1.2253E-05
0.876568966;-1.51064E-06;8.56031E-06
0.877034483;-5.87472E-06;5.20333E-06
0.8775;-9.9031E-06;3.86053E-06
0.877965517;-1.02388E-05;2.51774E-06
0.878431034;-8.22461E-06;1.17494E-06
0.878896552;-5.53903E-06;5.03548E-07
0.879362069;-2.85344E-06;1.67849E-07
0.879827586;-5.03548E-07;-3.18914E-06
0.880293103;-8.39246E-07;-1.2253E-05
0.880758621;-3.86053E-06;-2.09812E-05
0.881224138;-6.21042E-06;-2.23239E-05
0.881689655;-5.20333E-06;-1.66171E-05
0.882155172;-2.85344E-06;-8.22461E-06
0.88262069;2.51774E-06;-8.39246E-07
0.883086207;8.56031E-06;1.84634E-06
0.883551724;1.24208E-05;2.34989E-06
0.884017241;1.27565E-05;4.53193E-06
0.884482759;1.17494E-05;7.04967E-06
0.884948276;1.25887E-05;7.04967E-06
0.885413793;1.37636E-05;4.86763E-06
0.88587931;1.66171E-05;4.19623E-06
0.886344828;1.86313E-05;4.53193E-06
0.886810345;1.99741E-05;5.20333E-06
0.887275862;2.16526E-05;4.86763E-06
0.887741379;2.36667E-05;4.69978E-06
0.888206897;2.40024E-05;4.86763E-06
0.888672414;2.19883E-05;7.55322E-06
0.889137931;1.96384E-05;1.02388E-05
0.889603448;1.93027E-05;1.0071E-05
0.890068966;1.99741E-05;8.56031E-06
0.890534483;1.98062E-05;1.02388E-05
0.891;1.86313E-05;1.12459E-05
0.891465517;1.59457E-05;7.72107E-06
0.891931034;1.19173E-05;2.85344E-06
0.892396552;9.23171E-06;1.17494E-06
0.892862069;8.56031E-06;4.36408E-06
0.893327586;7.88891E-06;1.05745E-05
0.893793103;8.56031E-06;1.49386E-05
0.894258621;9.23171E-06;1.42672E-05
0.894724138;1.02388E-05;1.09102E-05
0.895189655;1.25887E-05;4.53193E-06
0.895655172;1.46029E-05;5.03548E-07
0.89612069;1.59457E-05;2.85344E-06
0.896586207;1.72885E-05;6.88182E-06
0.897051724;2.09812E-05;1.05745E-05
0.897517241;2.40024E-05;1.52743E-05
0.897982759;2.26596E-05;2.06455E-05
0.898448276;1.99741E-05;2.6688E-05
0.898913793;1.72885E-05;3.10521E-05
0.89937931;1.4435E-05;3.32342E-05
0.899844828;1.15816E-05;3.03807E-05
0.900310345;9.23171E-06;2.46738E-05
0.900775862;6.21042E-06;1.8967E-05
0.901241379;3.86053E-06;1.39315E-05
0.901706897;1.84634E-06;7.21752E-06
0.902172414;-8.39246E-07;1.17494E-06
0.902637931;-2.18204E-06;3.35698E-07
0.903103448;-2.18204E-06;4.53193E-06
0.903568966;-1.51064E-06;7.55322E-06
0.904034483;-1.51064E-06;9.9031E-06
0.9045;-3.52483E-06;1.39315E-05
0.904965517;-8.22461E-06;1.561E-05
0.905431034;-1.25887E-05;1.25887E-05
0.905896552;-1.46029E-05;8.56031E-06
0.906362069;-1.57778E-05;3.86053E-06
0.906827586;-1.69528E-05;-1.34279E-06
0.907293103;-1.66171E-05;-5.53903E-06
0.907758621;-1.39315E-05;-8.22461E-06
0.908224138;-9.73526E-06;-8.89601E-06
0.908689655;-3.02129E-06;-6.54612E-06
0.909155172;2.51774E-06;-4.19623E-06
0.90962069;6.21042E-06;-3.52483E-06
0.910086207;7.88891E-06;-4.36408E-06
0.910551724;1.05745E-05;-6.88182E-06
0.911017241;1.19173E-05;-6.88182E-06
0.911482759;1.02388E-05;-5.70687E-06
0.911948276;5.20333E-06;-4.53193E-06
0.912413793;-1.67849E-07;-8.89601E-06
0.91287931;-1.51064E-06;-1.29244E-05
0.913344828;-1.67849E-07;-1.05745E-05
0.913810345;8.39246E-07;-1.51064E-06
0.914275862;-5.03548E-07;7.72107E-06
0.914741379;-1.84634E-06;1.2253E-05
0.915206897;-1.67849E-07;1.24208E-05
0.915672414;3.02129E-06;1.12459E-05
0.916137931;4.53193E-06;1.02388E-05
0.916603448;5.70687E-06;9.23171E-06
0.917068966;7.21752E-06;9.56741E-06
0.917534483;7.88891E-06;9.9031E-06
0.918;9.06386E-06;1.12459E-05
0.918465517;9.9031E-06;1.2253E-05
0.918931034;1.12459E-05;1.05745E-05
0.919396552;1.19173E-05;7.88891E-06
0.919862069;1.15816E-05;6.54612E-06
0.920327586;1.29244E-05;6.37827E-06
0.920793103;1.52743E-05;5.53903E-06
0.921258621;1.79599E-05;5.87472E-06
0.921724138;1.93027E-05;8.39246E-06
0.922189655;1.86313E-05;9.73526E-06
0.922655172;1.66171E-05;7.88891E-06
0.92312069;1.66171E-05;8.22461E-06
0.923586207;1.76242E-05;1.19173E-05
0.924051724;1.72885E-05;1.25887E-05
0.924517241;1.62814E-05;9.56741E-06
0.924982759;1.66171E-05;6.54612E-06
0.925448276;1.59457E-05;3.18914E-06
0.925913793;1.32601E-05;-1.51064E-06
0.92637931;1.32601E-05;-3.86053E-06
0.926844828;1.52743E-05;-4.53193E-06
0.927310345;1.82956E-05;-5.20333E-06
0.927775862;1.99741E-05;-6.21042E-06
0.928241379;1.96384E-05;-6.21042E-06
0.928706897;1.84634E-05;-6.88182E-06
0.929172414;1.72885E-05;-7.38537E-06
0.929637931;1.64492E-05;-7.21752E-06
0.930103448;1.66171E-05;-4.53193E-06
0.930568966;1.72885E-05;1.17494E-06
0.931034483;1.67849E-05;3.52483E-06
0.9315;1.66171E-05;2.85344E-06
0.931965517;1.72885E-05;2.18204E-06
0.932431034;1.66171E-05;3.18914E-06
0.932896552;1.64492E-05;3.86053E-06
0.933362069;1.69528E-05;3.86053E-06
0.933827586;1.72885E-05;5.03548E-06
0.934293103;1.86313E-05;6.54612E-06
0.934758621;1.99741E-05;7.55322E-06
0.935224138;2.06455E-05;6.54612E-06
0.935689655;2.13169E-05;7.21752E-06
0.936155172;2.1149E-05;9.06386E-06
0.93662069;2.09812E-05;1.02388E-05
0.937086207;2.26596E-05;8.22461E-06
0.937551724;2.3331E-05;2.85344E-06
0.938017241;2.06455E-05;-1.51064E-06
0.938482759;1.59457E-05;-4.53193E-06
0.938948276;1.25887E-05;-6.88182E-06
0.939413793;1.19173E-05;-6.54612E-06
0.93987931;1.37636E-05;-2.85344E-06
0.940344828;1.42672E-05;5.03548E-07
0.940810345;1.39315E-05;1.67849E-06
0.941275862;1.29244E-05;8.39246E-07
0.941741379;1.05745E-05;-1.51064E-06
0.942206897;7.21752E-06;-4.86763E-06
0.942672414;3.52483E-06;-7.04967E-06
0.943137931;3.86053E-06;-4.86763E-06
0.943603448;5.53903E-06;1.84634E-06
0.944068966;4.69978E-06;7.21752E-06
0.944534483;2.34989E-06;6.54612E-06
0.945;1.17494E-06;1.17494E-06
0.945465517;5.03548E-07;-3.69268E-06
0.945931034;-8.39246E-07;-5.53903E-06
0.946396552;-2.51774E-06;-4.86763E-06
0.946862069;-4.19623E-06;-3.52483E-06
0.947327586;-4.86763E-06;-4.19623E-06
0.947793103;-4.19623E-06;-4.86763E-06
0.948258621;-4.53193E-06;-6.21042E-06
0.948724138;-4.36408E-06;-5.87472E-06
0.949189655;-2.01419E-06;-2.85344E-06
0.949655172;8.39246E-07;4.53193E-06
0.95012069;3.86053E-06;1.51064E-05
0.950586207;6.54612E-06;2.40024E-05
0.951051724;7.55322E-06;2.85344E-05
0.951517241;5.87472E-06;2.29953E-05
0.951982759;3.86053E-06;7.88891E-06
0.952448276;2.51774E-06;-2.18204E-06
0.952913793;2.85344E-06;-5.03548E-07
0.95337931;6.04257E-06;6.54612E-06
0.953844828;9.56741E-06;1.12459E-05
0.954310345;9.9031E-06;1.59457E-05
0.954775862;8.89601E-06;2.18204E-05
0.955241379;9.23171E-06;2.60166E-05
0.955706897;9.9031E-06;2.63523E-05
0.956172414;9.56741E-06;2.53452E-05
0.956637931;9.56741E-06;2.16526E-05
0.957103448;1.04067E-05;1.72885E-05
0.957568966;1.15816E-05;1.35958E-05
0.958034483;1.25887E-05;1.15816E-05
0.9585;1.07424E-05;7.04967E-06
0.958965517;8.22461E-06;-2.85344E-06
0.959431034;6.54612E-06;-1.32601E-05
0.959896552;4.19623E-06;-1.93027E-05
0.960362069;1.67849E-07;-2.16526E-05
0.960827586;-1.67849E-07;-2.09812E-05
0.961293103;1.84634E-06;-1.49386E-05
0.961758621;1.0071E-06;-1.05745E-05
0.962224138;-1.51064E-06;-1.2253E-05
0.962689655;-1.0071E-06;-1.51064E-05
0.963155172;-1.51064E-06;-1.67849E-05
0.96362069;-8.39246E-07;-1.561E-05
0.964086207;1.84634E-06;-1.42672E-05
0.964551724;5.03548E-06;-1.35958E-05
0.965017241;5.53903E-06;-1.19173E-05
0.965482759;3.86053E-06;-8.22461E-06
0.965948276;2.51774E-06;-5.87472E-06
0.966413793;1.84634E-06;-5.53903E-06
0.96687931;3.02129E-06;-3.52483E-06
0.967344828;5.53903E-06;5.03548E-07
0.967810345;5.87472E-06;4.86763E-06
0.968275862;5.20333E-06;8.39246E-06
0.968741379;6.54612E-06;1.29244E-05
0.969206897;8.89601E-06;1.76242E-05
0.969672414;8.89601E-06;2.09812E-05
0.970137931;7.88891E-06;2.23239E-05
0.970603448;8.22461E-06;2.43381E-05
0.971068966;7.88891E-06;2.60166E-05
0.971534483;7.55322E-06;2.63523E-05
0.972;8.22461E-06;2.60166E-05
0.972465517;8.89601E-06;2.80308E-05
0.972931034;1.02388E-05;3.20592E-05
0.973396552;1.0071E-05;3.44091E-05
0.973862069;1.02388E-05;3.54162E-05
0.974327586;1.39315E-05;3.91089E-05
0.974793103;1.72885E-05;4.11231E-05
0.975258621;1.69528E-05;3.87732E-05
0.975724138;1.51064E-05;3.27306E-05
0.976189655;1.4435E-05;2.90379E-05
0.976655172;1.49386E-05;2.87022E-05
0.97712069;1.59457E-05;2.87022E-05
0.977586207;1.561E-05;2.71916E-05
0.978051724;1.25887E-05;2.26596E-05
0.978517241;1.12459E-05;1.93027E-05
0.978982759;1.12459E-05;1.93027E-05
0.979448276;1.2253E-05;2.06455E-05
0.979913793;1.39315E-05;2.13169E-05
0.98037931;1.79599E-05;2.19883E-05
0.980844828;1.96384E-05;2.18204E-05
0.981310345;1.86313E-05;1.99741E-05
0.981775862;1.561E-05;1.82956E-05
0.982241379;1.14137E-05;1.27565E-05
0.982706897;7.88891E-06;7.88891E-06
0.983172414;5.03548E-06;5.20333E-06
0.983637931;4.53193E-06;4.36408E-06
0.984103448;5.87472E-06;4.86763E-06
0.984568966;9.56741E-06;7.55322E-06
0.985034483;1.39315E-05;1.04067E-05
0.9855;1.66171E-05;9.23171E-06
0.985965517;1.72885E-05;5.03548E-06
0.986431034;1.64492E-05;8.39246E-07
0.986896552;1.35958E-05;-3.69268E-06
0.987362069;1.12459E-05;-7.88891E-06
0.987827586;1.15816E-05;-9.9031E-06
0.988293103;1.05745E-05;-1.15816E-05
0.988758621;8.39246E-06;-1.35958E-05
0.989224138;5.20333E-06;-1.64492E-05
0.989689655;2.85344E-06;-1.66171E-05
0.990155172;3.18914E-06;-1.32601E-05
0.99062069;5.20333E-06;-9.56741E-06
0.991086207;6.21042E-06;-8.56031E-06
0.991551724;7.21752E-06;-8.56031E-06
0.992017241;8.56031E-06;-8.56031E-06
0.992482759;9.9031E-06;-9.56741E-06
0.992948276;1.12459E-05;-9.23171E-06
0.993413793;1.25887E-05;-6.04257E-06
0.99387931;1.15816E-05;-2.18204E-06
0.994344828;8.89601E-06;-1.51064E-06
0.994810345;7.72107E-06;-2.18204E-06
0.995275862;9.23171E-06;-1.51064E-06
0.995741379;1.12459E-05;-1.67849E-07
0.996206897;1.15816E-05;1.17494E-06
0.996672414;1.05745E-05;2.51774E-06
0.997137931;1.09102E-05;3.86053E-06
0.997603448;9.9031E-06;5.20333E-06
0.998068966;7.88891E-06;6.54612E-06
0.998534483;6.21042E-06;5.70687E-06
0.999;5.37118E-06;5.03548E-07
0.999465517;6.37827E-06;-8.22461E-06
0.999931034;7.88891E-06;-1.62814E-05
1.000396552;1.05745E-05;-2.06455E-05
1.000862069;1.24208E-05;-1.76242E-05
1.001327586;1.37636E-05;-1.35958E-05
1.001793103;1.561E-05;-1.27565E-05
1.002258621;1.79599E-05;-1.29244E-05
1.002724138;1.66171E-05;-9.56741E-06
1.003189655;1.39315E-05;-5.87472E-06
1.003655172;1.25887E-05;-4.86763E-06
1.00412069;1.42672E-05;-3.18914E-06
1.004586207;1.46029E-05;-2.51774E-06
1.005051724;1.19173E-05;-5.53903E-06
1.005517241;8.56031E-06;-8.56031E-06
1.005982759;8.56031E-06;-5.87472E-06
1.006448276;9.56741E-06;2.51774E-06
1.006913793;1.05745E-05;8.56031E-06
1.00737931;9.9031E-06;1.15816E-05
1.007844828;7.55322E-06;1.39315E-05
1.008310345;5.87472E-06;1.39315E-05
1.008775862;6.54612E-06;9.23171E-06
1.009241379;7.72107E-06;-1.67849E-07
1.009706897;7.88891E-06;-1.49386E-05
1.010172414;6.54612E-06;-3.30663E-05
1.010637931;5.20333E-06;-4.88441E-05
1.011103448;4.53193E-06;-5.42153E-05
1.011568966;5.20333E-06;-4.48157E-05
1.012034483;7.88891E-06;-2.90379E-05
1.0125;1.09102E-05;-1.62814E-05
1.012965517;1.19173E-05;-1.05745E-05
1.013431034;1.32601E-05;-7.21752E-06
1.013896552;1.25887E-05;-6.88182E-06
1.014362069;1.15816E-05;-7.88891E-06
1.014827586;1.12459E-05;-5.87472E-06
1.015293103;1.19173E-05;-2.18204E-06
1.015758621;1.15816E-05;-1.67849E-07
1.016224138;1.02388E-05;-2.85344E-06
1.016689655;6.88182E-06;-4.19623E-06
1.017155172;1.17494E-06;-2.18204E-06
1.01762069;-2.34989E-06;2.51774E-06
1.018086207;-4.86763E-06;9.23171E-06
1.018551724;-5.20333E-06;1.561E-05
1.019017241;-2.18204E-06;2.13169E-05
1.019482759;3.35698E-06;2.6688E-05
1.019948276;7.88891E-06;3.07164E-05
1.020413793;9.23171E-06;3.37377E-05
1.02087931;8.56031E-06;3.6759E-05
1.021344828;6.88182E-06;3.64233E-05
1.021810345;5.53903E-06;3.3402E-05
1.022275862;5.20333E-06;3.03807E-05
1.022741379;6.54612E-06;2.53452E-05
1.023206897;6.54612E-06;1.49386E-05
1.023672414;5.20333E-06;3.52483E-06
1.024137931;4.53193E-06;-5.03548E-06
1.024603448;5.20333E-06;-8.22461E-06
1.025068966;5.20333E-06;-8.22461E-06
1.025534483;5.20333E-06;-6.21042E-06
1.026;6.54612E-06;-2.85344E-06
1.026465517;7.88891E-06;-8.39246E-07
1.026931034;1.12459E-05;1.84634E-06
1.027396552;1.46029E-05;7.55322E-06
1.027862069;1.66171E-05;1.32601E-05
1.028327586;1.93027E-05;1.69528E-05
1.028793103;2.13169E-05;1.76242E-05
1.029258621;2.1149E-05;1.76242E-05
1.029724138;1.81277E-05;1.66171E-05
1.030189655;1.59457E-05;1.59457E-05
1.030655172;1.29244E-05;1.46029E-05
1.03112069;9.9031E-06;1.32601E-05
1.031586207;9.56741E-06;1.25887E-05
1.032051724;1.15816E-05;1.46029E-05
1.032517241;1.35958E-05;1.76242E-05
1.032982759;1.39315E-05;1.8967E-05
1.033448276;1.4435E-05;2.04776E-05
1.033913793;1.52743E-05;2.29953E-05
1.03437931;1.66171E-05;2.46738E-05
1.034844828;1.72885E-05;2.40024E-05
1.035310345;1.76242E-05;2.06455E-05
1.035775862;1.66171E-05;1.79599E-05
1.036241379;1.59457E-05;1.93027E-05
1.036706897;1.59457E-05;2.26596E-05
1.037172414;1.59457E-05;2.23239E-05
1.037637931;1.561E-05;1.71206E-05
1.038103448;1.51064E-05;1.12459E-05
1.038568966;1.29244E-05;7.88891E-06
1.039034483;1.10781E-05;1.02388E-05
1.0395;1.09102E-05;1.51064E-05
1.039965517;1.05745E-05;1.86313E-05
1.040431034;9.9031E-06;1.96384E-05
1.040896552;1.02388E-05;1.86313E-05
1.041362069;1.02388E-05;1.14137E-05
1.041827586;8.89601E-06;5.20333E-06
1.042293103;7.04967E-06;3.86053E-06
1.042758621;5.70687E-06;3.52483E-06
1.043224138;1.17494E-06;1.67849E-07
1.043689655;-4.53193E-06;-6.21042E-06
1.044155172;-9.56741E-06;-1.15816E-05
1.04462069;-1.19173E-05;-1.29244E-05
1.045086207;-1.15816E-05;-1.15816E-05
1.045551724;-8.56031E-06;-9.56741E-06
1.046017241;-5.87472E-06;-5.53903E-06
1.046482759;-3.18914E-06;-2.85344E-06
1.046948276;-8.39246E-07;-1.51064E-06
1.047413793;-1.67849E-07;-2.18204E-06
1.04787931;5.03548E-07;-1.51064E-06
1.048344828;8.39246E-07;-1.51064E-06
1.048810345;1.0071E-06;-1.17494E-06
1.049275862;1.17494E-06;-1.67849E-07
1.049741379;2.51774E-06;2.51774E-06
1.050206897;4.19623E-06;5.20333E-06
1.050672414;5.87472E-06;7.21752E-06
1.051137931;8.56031E-06;5.87472E-06
1.051603448;8.56031E-06;3.52483E-06
1.052068966;6.88182E-06;1.17494E-06
1.052534483;7.38537E-06;1.17494E-06
1.053;1.02388E-05;2.18204E-06
1.053465517;1.19173E-05;2.51774E-06
1.053931034;1.25887E-05;4.19623E-06
1.054396552;1.19173E-05;5.53903E-06
1.054862069;1.27565E-05;6.54612E-06
1.055327586;1.52743E-05;7.88891E-06
1.055793103;1.72885E-05;9.23171E-06
1.056258621;1.71206E-05;9.06386E-06
1.056724138;1.49386E-05;7.88891E-06
1.057189655;1.42672E-05;1.02388E-05
1.057655172;1.32601E-05;1.15816E-05
1.05812069;1.17494E-05;9.23171E-06
1.058586207;1.04067E-05;3.86053E-06
1.059051724;8.22461E-06;-6.71397E-07
1.059517241;7.72107E-06;-2.34989E-06
1.059982759;8.56031E-06;-2.85344E-06
1.060448276;8.89601E-06;-5.20333E-06
1.060913793;7.88891E-06;-1.05745E-05
1.06137931;8.22461E-06;-1.52743E-05
1.061844828;9.06386E-06;-1.99741E-05
1.062310345;8.56031E-06;-2.76951E-05
1.062775862;6.54612E-06;-3.57519E-05
1.063241379;5.53903E-06;-3.97803E-05
1.063706897;6.54612E-06;-3.92767E-05
1.064172414;6.88182E-06;-3.45769E-05
1.064637931;6.21042E-06;-2.87022E-05
1.065103448;7.72107E-06;-2.43381E-05
1.065568966;1.05745E-05;-1.86313E-05
1.066034483;1.4435E-05;-1.09102E-05
1.0665;1.64492E-05;-3.52483E-06
1.066965517;1.59457E-05;2.51774E-06
1.067431034;1.59457E-05;7.21752E-06
1.067896552;1.59457E-05;9.9031E-06
1.068362069;1.46029E-05;9.23171E-06
1.068827586;1.52743E-05;9.9031E-06
1.069293103;1.72885E-05;1.09102E-05
1.069758621;1.86313E-05;1.29244E-05
1.070224138;1.93027E-05;1.86313E-05
1.070689655;1.91348E-05;2.46738E-05
1.071155172;1.72885E-05;2.26596E-05
1.07162069;1.52743E-05;1.32601E-05
1.072086207;1.29244E-05;4.53193E-06
1.072551724;1.12459E-05;1.0071E-06
1.073017241;1.05745E-05;1.17494E-06
1.073482759;9.23171E-06;3.86053E-06
1.073948276;8.39246E-06;7.21752E-06
1.074413793;7.88891E-06;1.05745E-05
1.07487931;8.89601E-06;1.46029E-05
1.075344828;9.9031E-06;1.71206E-05
1.075810345;1.12459E-05;1.86313E-05
1.076275862;1.17494E-05;2.19883E-05
1.076741379;9.56741E-06;2.60166E-05
1.077206897;6.54612E-06;2.73594E-05
1.077672414;4.53193E-06;2.53452E-05
1.078137931;4.86763E-06;2.13169E-05
1.078603448;6.54612E-06;1.98062E-05
1.079068966;7.21752E-06;1.99741E-05
1.079534483;5.20333E-06;1.72885E-05
1.08;4.53193E-06;1.46029E-05
1.080465517;5.87472E-06;1.52743E-05
1.080931034;5.87472E-06;1.72885E-05
1.081396552;5.53903E-06;1.69528E-05
1.081862069;7.38537E-06;1.39315E-05
1.082327586;9.9031E-06;1.19173E-05
1.082793103;1.02388E-05;1.19173E-05
1.083258621;9.56741E-06;1.15816E-05
1.083724138;1.05745E-05;9.9031E-06
1.084189655;1.19173E-05;8.56031E-06
1.084655172;1.05745E-05;6.54612E-06
1.08512069;7.88891E-06;4.19623E-06
1.085586207;7.21752E-06;3.18914E-06
1.086051724;8.22461E-06;5.03548E-06
1.086517241;8.22461E-06;7.21752E-06
1.086982759;6.54612E-06;9.23171E-06
1.087448276;5.53903E-06;9.9031E-06
1.087913793;4.36408E-06;6.54612E-06
1.08837931;2.85344E-06;3.35698E-07
1.088844828;1.17494E-06;-4.19623E-06
1.089310345;5.03548E-07;-4.19623E-06
1.089775862;5.03548E-07;-4.86763E-06
1.090241379;2.18204E-06;-6.21042E-06
1.090706897;3.35698E-06;-6.21042E-06
1.091172414;5.20333E-06;-3.86053E-06
1.091637931;6.21042E-06;-2.51774E-06
1.092103448;5.53903E-06;-1.51064E-06
1.092568966;5.20333E-06;2.51774E-06
1.093034483;6.04257E-06;6.54612E-06
1.0935;6.54612E-06;7.72107E-06
1.093965517;5.20333E-06;9.23171E-06
1.094431034;3.86053E-06;1.12459E-05
1.094896552;2.85344E-06;1.19173E-05
1.095362069;3.86053E-06;1.12459E-05
1.095827586;5.87472E-06;9.23171E-06
1.096293103;8.56031E-06;7.88891E-06
1.096758621;1.12459E-05;7.88891E-06
1.097224138;1.35958E-05;9.23171E-06
1.097689655;1.4435E-05;1.09102E-05
1.098155172;1.32601E-05;1.19173E-05
1.09862069;1.32601E-05;1.19173E-05
1.099086207;1.32601E-05;1.05745E-05
1.099551724;1.19173E-05;9.56741E-06
1.100017241;1.05745E-05;9.06386E-06
1.100482759;1.05745E-05;9.9031E-06
1.100948276;1.09102E-05;1.05745E-05
1.101413793;9.56741E-06;1.15816E-05
1.10187931;8.89601E-06;1.29244E-05
1.102344828;8.56031E-06;1.29244E-05
1.102810345;8.22461E-06;1.42672E-05
1.103275862;8.56031E-06;1.93027E-05
1.103741379;8.39246E-06;2.3331E-05
1.104206897;7.21752E-06;2.40024E-05
1.104672414;7.21752E-06;2.29953E-05
1.105137931;8.89601E-06;2.29953E-05
1.105603448;9.9031E-06;2.36667E-05
1.106068966;9.23171E-06;1.96384E-05
1.106534483;9.56741E-06;1.12459E-05
1.107;9.9031E-06;1.17494E-06
1.107465517;1.12459E-05;-7.55322E-06
1.107931034;1.15816E-05;-1.35958E-05
1.108396552;9.9031E-06;-1.62814E-05
1.108862069;9.23171E-06;-1.42672E-05
1.109327586;1.0071E-05;-9.23171E-06
1.109793103;9.23171E-06;-6.88182E-06
1.110258621;6.21042E-06;-8.22461E-06
1.110724138;4.53193E-06;-1.12459E-05
1.111189655;5.20333E-06;-1.29244E-05
1.111655172;7.04967E-06;-1.17494E-05
1.11212069;8.56031E-06;-7.55322E-06
1.112586207;9.9031E-06;-4.86763E-06
1.113051724;1.15816E-05;-3.52483E-06
1.113517241;1.35958E-05;-1.67849E-07
1.113982759;1.42672E-05;3.86053E-06
1.114448276;1.4435E-05;5.20333E-06
1.114913793;1.46029E-05;4.86763E-06
1.11537931;1.4435E-05;2.85344E-06
1.115844828;1.19173E-05;1.17494E-06
1.116310345;9.56741E-06;1.17494E-06
1.116775862;9.23171E-06;1.84634E-06
1.117241379;1.15816E-05;2.51774E-06
1.117706897;1.12459E-05;3.35698E-06
1.118172414;9.56741E-06;7.04967E-06
1.118637931;9.23171E-06;1.05745E-05
1.119103448;8.89601E-06;1.25887E-05
1.119568966;6.54612E-06;1.05745E-05
1.120034483;3.18914E-06;7.21752E-06
1.1205;2.51774E-06;7.88891E-06
1.120965517;3.18914E-06;1.32601E-05
1.121431034;3.86053E-06;1.71206E-05
1.121896552;4.86763E-06;1.71206E-05
1.122362069;5.53903E-06;1.19173E-05
1.122827586;5.87472E-06;2.51774E-06
1.123293103;5.53903E-06;-1.02388E-05
1.123758621;5.87472E-06;-1.79599E-05
1.124224138;4.69978E-06;-1.8967E-05
1.124689655;1.84634E-06;-1.93027E-05
1.125155172;1.17494E-06;-2.16526E-05
1.12562069;4.53193E-06;-2.13169E-05
1.126086207;1.10781E-05;-1.82956E-05
1.126551724;1.52743E-05;-1.29244E-05
1.127017241;1.49386E-05;-6.88182E-06
1.127482759;1.39315E-05;-2.18204E-06
1.127948276;1.46029E-05;1.17494E-06
1.128413793;1.49386E-05;4.86763E-06
1.12887931;1.59457E-05;6.54612E-06
1.129344828;1.72885E-05;4.53193E-06
1.129810345;1.76242E-05;3.18914E-06
1.130275862;1.86313E-05;7.21752E-06
1.130741379;1.84634E-05;1.2253E-05
1.131206897;1.561E-05;1.46029E-05
1.131672414;1.24208E-05;1.29244E-05
1.132137931;9.23171E-06;9.9031E-06
1.132603448;7.21752E-06;5.87472E-06
1.133068966;5.87472E-06;3.18914E-06
1.133534483;5.20333E-06;2.51774E-06
1.134;6.54612E-06;5.20333E-06
1.134465517;7.55322E-06;1.09102E-05
1.134931034;8.22461E-06;1.62814E-05
1.135396552;1.02388E-05;1.91348E-05
1.135862069;1.02388E-05;1.8967E-05
1.136327586;9.9031E-06;1.82956E-05
1.136793103;1.12459E-05;1.93027E-05
1.137258621;1.39315E-05;2.13169E-05
1.137724138;1.46029E-05;2.43381E-05
1.138189655;1.4435E-05;2.60166E-05
1.138655172;1.25887E-05;2.40024E-05
1.13912069;1.05745E-05;1.79599E-05
1.139586207;1.02388E-05;1.05745E-05
1.140051724;9.9031E-06;5.53903E-06
1.140517241;8.39246E-06;2.34989E-06
1.140982759;6.88182E-06;-1.51064E-06
1.141448276;7.88891E-06;-4.19623E-06
1.141913793;9.56741E-06;-4.53193E-06
1.14237931;8.56031E-06;-3.52483E-06
1.142844828;6.21042E-06;-2.85344E-06
1.143310345;6.21042E-06;-1.51064E-06
1.143775862;7.55322E-06;-1.51064E-06
1.144241379;6.88182E-06;-3.02129E-06
1.144706897;4.19623E-06;-4.19623E-06
1.145172414;3.86053E-06;-1.84634E-06
1.145637931;4.53193E-06;1.84634E-06
1.146103448;5.20333E-06;3.18914E-06
1.146568966;5.87472E-06;5.87472E-06
1.147034483;7.88891E-06;8.89601E-06
1.1475;1.04067E-05;1.04067E-05
1.147965517;1.05745E-05;1.12459E-05
1.148431034;1.05745E-05;1.2253E-05
1.148896552;1.2253E-05;1.37636E-05
1.149362069;1.40993E-05;1.59457E-05
1.149827586;1.39315E-05;1.86313E-05
1.150293103;1.12459E-05;2.06455E-05
1.150758621;9.9031E-06;2.08133E-05
1.151224138;1.10781E-05;1.79599E-05
1.151689655;1.24208E-05;1.39315E-05
1.152155172;1.19173E-05;8.89601E-06
1.15262069;9.73526E-06;5.03548E-06
1.153086207;7.55322E-06;3.18914E-06
1.153551724;5.70687E-06;1.84634E-06
1.154017241;4.86763E-06;-8.39246E-07
1.154482759;5.03548E-06;-4.86763E-06
1.154948276;5.87472E-06;-8.22461E-06
1.155413793;4.53193E-06;-7.88891E-06
1.15587931;1.84634E-06;-4.19623E-06
1.156344828;-8.39246E-07;-2.18204E-06
1.156810345;-2.51774E-06;-4.19623E-06
1.157275862;-3.52483E-06;-6.54612E-06
1.157741379;-5.70687E-06;-9.06386E-06
1.158206897;-7.88891E-06;-1.39315E-05
1.158672414;-1.05745E-05;-1.49386E-05
1.159137931;-1.15816E-05;-9.56741E-06
1.159603448;-8.89601E-06;-2.34989E-06
1.160068966;-3.18914E-06;5.03548E-07
1.160534483;8.39246E-07;1.67849E-07
1.161;2.18204E-06;-1.84634E-06
1.161465517;2.51774E-06;-1.84634E-06
1.161931034;5.20333E-06;1.17494E-06
1.162396552;1.05745E-05;6.88182E-06
1.162862069;1.46029E-05;1.37636E-05
1.163327586;1.561E-05;1.76242E-05
1.163793103;1.46029E-05;1.59457E-05
1.164258621;1.39315E-05;1.19173E-05
1.164724138;1.32601E-05;1.02388E-05
1.165189655;1.32601E-05;1.25887E-05
1.165655172;1.17494E-05;1.37636E-05
1.16612069;9.9031E-06;1.05745E-05
1.166586207;8.56031E-06;7.88891E-06
1.167051724;7.21752E-06;7.88891E-06
1.167517241;7.55322E-06;7.21752E-06
1.167982759;9.23171E-06;3.18914E-06
1.168448276;1.12459E-05;1.67849E-06
1.168913793;1.32601E-05;1.17494E-06
1.16937931;1.57778E-05;-3.35698E-07
1.169844828;1.69528E-05;-2.18204E-06
1.170310345;1.62814E-05;-2.18204E-06
1.170775862;1.62814E-05;3.35698E-07
1.171241379;1.8967E-05;1.84634E-06
1.171706897;2.13169E-05;1.17494E-06
1.172172414;2.13169E-05;-1.67849E-07
1.172637931;1.79599E-05;8.39246E-07
1.173103448;1.66171E-05;2.51774E-06
1.173568966;1.72885E-05;2.85344E-06
1.174034483;1.86313E-05;1.84634E-06
1.1745;1.98062E-05;8.39246E-07
1.174965517;1.96384E-05;-1.67849E-07
1.175431034;1.82956E-05;-1.51064E-06
1.175896552;1.64492E-05;-3.52483E-06
1.176362069;1.561E-05;-4.86763E-06
1.176827586;1.66171E-05;-3.35698E-06
1.177293103;1.59457E-05;-1.0071E-06
1.177758621;1.32601E-05;2.85344E-06
1.178224138;1.15816E-05;8.39246E-06
1.178689655;1.2253E-05;1.29244E-05
1.179155172;1.25887E-05;1.62814E-05
1.17962069;1.05745E-05;2.16526E-05
1.180086207;6.88182E-06;2.73594E-05
1.180551724;5.37118E-06;2.76951E-05
1.181017241;5.20333E-06;2.38346E-05
1.181482759;5.53903E-06;1.82956E-05
1.181948276;5.03548E-06;1.39315E-05
1.182413793;4.19623E-06;1.2253E-05
1.18287931;5.87472E-06;1.19173E-05
1.183344828;6.88182E-06;1.19173E-05
1.183810345;6.54612E-06;1.2253E-05
1.184275862;6.37827E-06;1.02388E-05
1.184741379;5.87472E-06;5.20333E-06
1.185206897;7.88891E-06;5.03548E-07
1.185672414;1.17494E-05;-1.51064E-06
1.186137931;1.32601E-05;1.84634E-06
1.186603448;1.19173E-05;6.21042E-06
1.187068966;8.89601E-06;7.21752E-06
1.187534483;5.87472E-06;4.19623E-06
1.188;5.87472E-06;1.84634E-06
1.188465517;9.23171E-06;5.03548E-07
1.188931034;1.24208E-05;-4.19623E-06
1.189396552;1.29244E-05;-1.39315E-05
1.189862069;1.05745E-05;-2.29953E-05
1.190327586;7.21752E-06;-2.90379E-05
1.190793103;3.18914E-06;-3.37377E-05
1.191258621;2.18204E-06;-3.70947E-05
1.191724138;3.86053E-06;-4.31373E-05
1.192189655;6.54612E-06;-5.28725E-05
1.192655172;6.21042E-06;-5.99222E-05
1.19312069;3.86053E-06;-6.07614E-05
1.193586207;3.18914E-06;-5.52224E-05
1.194051724;2.18204E-06;-4.51514E-05
1.194517241;1.17494E-06;-3.37377E-05
1.194982759;-1.67849E-07;-2.3331E-05
1.195448276;-1.0071E-06;-1.32601E-05
1.195913793;-1.17494E-06;-5.20333E-06
1.19637931;-1.67849E-07;2.51774E-06
1.196844828;-1.67849E-07;8.89601E-06
1.197310345;-5.03548E-07;1.2253E-05
1.197775862;-1.17494E-06;1.05745E-05
1.198241379;5.03548E-07;7.21752E-06
1.198706897;2.85344E-06;5.20333E-06
1.199172414;4.53193E-06;7.21752E-06
1.199637931;4.86763E-06;1.12459E-05
1.200103448;3.86053E-06;1.561E-05
1.200568966;2.18204E-06;1.94705E-05
1.201034483;2.51774E-06;2.19883E-05
1.2015;3.86053E-06;2.60166E-05
1.201965517;7.04967E-06;3.13878E-05
1.202431034;8.56031E-06;3.54162E-05
1.202896552;7.88891E-06;3.54162E-05
1.203362069;7.88891E-06;3.37377E-05
1.203827586;9.23171E-06;3.27306E-05
1.204293103;1.37636E-05;3.27306E-05
1.204758621;1.66171E-05;3.30663E-05
1.205224138;1.72885E-05;3.50805E-05
1.205689655;1.79599E-05;3.77661E-05
1.206155172;1.8967E-05;4.04517E-05
1.20662069;1.99741E-05;4.21302E-05
1.207086207;2.13169E-05;4.28016E-05
1.207551724;2.3331E-05;4.14588E-05
1.208017241;2.38346E-05;4.06195E-05
1.208482759;2.23239E-05;3.6759E-05
1.208948276;1.93027E-05;3.07164E-05
1.209413793;1.52743E-05;2.73594E-05
1.20987931;1.32601E-05;2.70237E-05
1.210344828;1.27565E-05;2.53452E-05
1.210810345;1.19173E-05;2.03098E-05
1.211275862;9.9031E-06;1.32601E-05
1.211741379;6.54612E-06;8.89601E-06
1.212206897;3.86053E-06;6.37827E-06
1.212672414;4.36408E-06;5.87472E-06
1.213137931;4.19623E-06;4.53193E-06
1.213603448;2.34989E-06;2.34989E-06
1.214068966;1.84634E-06;-3.35698E-07
1.214534483;2.51774E-06;-1.84634E-06
1.215;4.36408E-06;-2.51774E-06
1.215465517;4.86763E-06;1.67849E-07
1.215931034;4.69978E-06;2.51774E-06
1.216396552;4.36408E-06;2.51774E-06
1.216862069;7.04967E-06;2.51774E-06
1.217327586;9.56741E-06;5.87472E-06
1.217793103;9.56741E-06;6.54612E-06
1.218258621;6.37827E-06;1.17494E-06
1.218724138;4.53193E-06;-4.53193E-06
1.219189655;4.53193E-06;-7.21752E-06
1.219655172;4.53193E-06;-6.88182E-06
1.22012069;5.53903E-06;-2.51774E-06
1.220586207;6.88182E-06;3.69268E-06
1.221051724;7.55322E-06;9.56741E-06
1.221517241;6.88182E-06;1.52743E-05
1.221982759;6.54612E-06;2.06455E-05
1.222448276;6.88182E-06;2.46738E-05
1.222913793;7.55322E-06;2.40024E-05
1.22337931;9.9031E-06;1.93027E-05
1.223844828;1.15816E-05;1.37636E-05
1.224310345;1.19173E-05;7.88891E-06
1.224775862;1.15816E-05;3.02129E-06
1.225241379;9.56741E-06;-1.67849E-07
1.225706897;7.21752E-06;-2.18204E-06
1.226172414;6.21042E-06;-4.19623E-06
1.226637931;6.37827E-06;-4.86763E-06
1.227103448;6.54612E-06;-3.86053E-06
1.227568966;7.21752E-06;-4.19623E-06
1.228034483;6.21042E-06;-4.53193E-06
1.2285;6.21042E-06;-5.87472E-06
1.228965517;6.54612E-06;-9.56741E-06
1.229431034;5.20333E-06;-1.29244E-05
1.229896552;4.19623E-06;-1.49386E-05
1.230362069;5.03548E-06;-1.35958E-05
1.230827586;5.20333E-06;-9.56741E-06
1.231293103;4.36408E-06;-5.87472E-06
1.231758621;4.19623E-06;-6.21042E-06
1.232224138;5.20333E-06;-8.89601E-06
1.232689655;6.21042E-06;-8.22461E-06
1.233155172;3.86053E-06;-4.36408E-06
1.23362069;1.84634E-06;-8.39246E-07
1.234086207;4.19623E-06;1.67849E-06
1.234551724;7.55322E-06;5.20333E-06
1.235017241;1.02388E-05;8.39246E-06
1.235482759;1.05745E-05;6.54612E-06
1.235948276;1.2253E-05;3.18914E-06
1.236413793;1.32601E-05;2.34989E-06
1.23687931;1.39315E-05;3.86053E-06
1.237344828;1.37636E-05;4.86763E-06
1.237810345;1.32601E-05;5.20333E-06
1.238275862;1.46029E-05;7.88891E-06
1.238741379;1.59457E-05;1.19173E-05
1.239206897;1.52743E-05;1.67849E-05
1.239672414;1.52743E-05;1.8967E-05
1.240137931;1.72885E-05;1.86313E-05
1.240603448;1.76242E-05;2.06455E-05
1.241068966;1.66171E-05;2.29953E-05
1.241534483;1.561E-05;2.38346E-05
1.242;1.4435E-05;2.18204E-05
1.242465517;1.27565E-05;1.99741E-05
1.242931034;9.56741E-06;1.84634E-05
1.243396552;4.53193E-06;1.32601E-05
1.243862069;2.18204E-06;6.21042E-06
1.244327586;4.36408E-06;2.85344E-06
1.244793103;5.87472E-06;2.51774E-06
1.245258621;5.70687E-06;5.03548E-07
1.245724138;4.53193E-06;-2.85344E-06
1.246189655;4.53193E-06;-5.53903E-06
1.246655172;5.53903E-06;-3.52483E-06
1.24712069;6.21042E-06;1.84634E-06
1.247586207;6.21042E-06;5.87472E-06
1.248051724;7.72107E-06;9.23171E-06
1.248517241;7.88891E-06;1.32601E-05
1.248982759;8.22461E-06;1.561E-05
1.249448276;8.56031E-06;1.71206E-05
1.249913793;8.89601E-06;1.82956E-05
1.25037931;9.56741E-06;1.76242E-05
1.250844828;9.56741E-06;1.17494E-05
1.251310345;8.56031E-06;3.86053E-06
1.251775862;6.04257E-06;-2.18204E-06
1.252241379;4.19623E-06;-6.21042E-06
1.252706897;3.86053E-06;-8.56031E-06
1.253172414;6.21042E-06;-9.06386E-06
1.253637931;6.54612E-06;-8.22461E-06
1.254103448;5.87472E-06;-6.88182E-06
1.254568966;3.52483E-06;-3.69268E-06
1.255034483;-1.67849E-07;-1.67849E-07
1.2555;-1.67849E-07;1.67849E-07
1.255965517;2.18204E-06;-1.51064E-06
1.256431034;6.54612E-06;1.17494E-06
1.256896552;1.05745E-05;7.38537E-06
1.257362069;1.32601E-05;1.12459E-05
1.257827586;1.52743E-05;1.2253E-05
1.258293103;1.561E-05;1.32601E-05
1.258758621;1.52743E-05;1.32601E-05
1.259224138;1.52743E-05;8.56031E-06
1.259689655;1.42672E-05;1.84634E-06
1.260155172;1.32601E-05;-2.18204E-06
1.26062069;1.37636E-05;-2.51774E-06
1.261086207;1.51064E-05;-1.51064E-06
1.261551724;1.561E-05;-1.51064E-06
1.262017241;1.59457E-05;-2.18204E-06
1.262482759;1.72885E-05;-2.18204E-06
1.262948276;1.64492E-05;-1.67849E-07
1.263413793;1.49386E-05;2.51774E-06
1.26387931;1.59457E-05;6.21042E-06
1.264344828;1.49386E-05;8.89601E-06
1.264810345;1.09102E-05;9.23171E-06
1.265275862;7.38537E-06;8.89601E-06
1.265741379;6.54612E-06;7.38537E-06
1.266206897;6.54612E-06;6.54612E-06
1.266672414;6.54612E-06;7.55322E-06
1.267137931;7.72107E-06;9.23171E-06
1.267603448;7.88891E-06;8.89601E-06
1.268068966;7.55322E-06;4.86763E-06
1.268534483;6.88182E-06;-1.67849E-07
1.269;6.21042E-06;-1.51064E-06
1.269465517;7.72107E-06;5.03548E-07
1.269931034;6.88182E-06;1.17494E-06
1.270396552;3.86053E-06;1.17494E-06
1.270862069;1.17494E-06;2.51774E-06
1.271327586;1.17494E-06;4.53193E-06
1.271793103;2.51774E-06;3.52483E-06
1.272258621;1.67849E-06;3.35698E-07
1.272724138;8.39246E-07;-2.51774E-06
1.273189655;1.84634E-06;-3.18914E-06
1.273655172;2.51774E-06;-1.67849E-07
1.27412069;3.52483E-06;4.86763E-06
1.274586207;5.03548E-06;7.88891E-06
1.275051724;7.55322E-06;8.56031E-06
1.275517241;1.05745E-05;9.9031E-06
1.275982759;1.19173E-05;1.29244E-05
1.276448276;1.02388E-05;1.52743E-05
1.276913793;7.88891E-06;1.46029E-05
1.27737931;7.21752E-06;1.29244E-05
1.277844828;7.88891E-06;1.46029E-05
1.278310345;8.89601E-06;1.82956E-05
1.278775862;8.56031E-06;1.66171E-05
1.279241379;7.88891E-06;1.05745E-05
1.279706897;7.21752E-06;4.19623E-06
1.280172414;7.55322E-06;1.84634E-06
1.280637931;1.12459E-05;3.86053E-06
1.281103448;1.62814E-05;6.21042E-06
1.281568966;1.91348E-05;7.88891E-06
1.282034483;1.8967E-05;7.88891E-06
1.2825;1.8967E-05;7.21752E-06
1.282965517;1.84634E-05;6.54612E-06
1.283431034;1.79599E-05;6.54612E-06
1.283896552;1.72885E-05;7.88891E-06
1.284362069;1.66171E-05;9.23171E-06
1.284827586;1.69528E-05;1.12459E-05
1.285293103;1.62814E-05;1.2253E-05
1.285758621;1.4435E-05;8.39246E-06
1.286224138;1.05745E-05;5.03548E-07
1.286689655;7.21752E-06;-5.20333E-06
1.287155172;3.86053E-06;-5.37118E-06
1.28762069;1.0071E-06;-1.51064E-06
1.288086207;-5.03548E-07;1.17494E-06
1.288551724;-3.02129E-06;3.35698E-07
1.289017241;-4.53193E-06;-3.18914E-06
1.289482759;-2.85344E-06;-5.53903E-06
1.289948276;2.51774E-06;-3.35698E-06
1.290413793;7.55322E-06;1.0071E-06
1.29087931;1.2253E-05;6.21042E-06
1.291344828;1.46029E-05;9.9031E-06
1.291810345;1.46029E-05;1.12459E-05
1.292275862;1.39315E-05;9.9031E-06
1.292741379;1.25887E-05;5.87472E-06
1.293206897;1.29244E-05;-1.67849E-07
1.293672414;1.4435E-05;-4.19623E-06
1.294137931;1.52743E-05;-2.18204E-06
1.294603448;1.561E-05;6.54612E-06
1.295068966;1.7792E-05;1.4435E-05
1.295534483;2.06455E-05;1.32601E-05
1.296;2.13169E-05;7.04967E-06
1.296465517;1.93027E-05;1.17494E-06
1.296931034;1.49386E-05;-4.53193E-06
1.297396552;1.02388E-05;-1.05745E-05
1.297862069;6.21042E-06;-1.71206E-05
1.298327586;3.86053E-06;-2.16526E-05
1.298793103;2.51774E-06;-1.79599E-05
1.299258621;1.17494E-06;-9.23171E-06
1.299724138;2.51774E-06;-4.19623E-06
1.300189655;3.52483E-06;-4.19623E-06
1.300655172;3.18914E-06;-5.87472E-06
1.30112069;1.84634E-06;-7.55322E-06
1.301586207;1.84634E-06;-8.56031E-06
1.302051724;1.17494E-06;-1.02388E-05
1.302517241;-1.51064E-06;-9.56741E-06
1.302982759;-2.85344E-06;-5.70687E-06
1.303448276;-4.19623E-06;-2.85344E-06
1.303913793;-5.53903E-06;-1.51064E-06
1.30437931;-5.87472E-06;4.86763E-06
1.304844828;-3.69268E-06;1.25887E-05
1.305310345;-3.35698E-07;1.51064E-05
1.305775862;1.84634E-06;1.49386E-05
1.306241379;3.18914E-06;1.66171E-05
1.306706897;4.69978E-06;1.72885E-05
1.307172414;7.04967E-06;1.72885E-05
1.307637931;9.23171E-06;1.72885E-05
1.308103448;1.02388E-05;1.86313E-05
1.308568966;9.56741E-06;1.86313E-05
1.309034483;7.55322E-06;1.72885E-05
1.3095;3.86053E-06;1.64492E-05
1.309965517;1.17494E-06;1.40993E-05
1.310431034;1.84634E-06;1.15816E-05
1.310896552;3.02129E-06;7.88891E-06
1.311362069;2.34989E-06;3.52483E-06
1.311827586;2.18204E-06;1.84634E-06
1.312293103;7.55322E-06;2.85344E-06
1.312758621;1.46029E-05;5.87472E-06
1.313224138;1.82956E-05;1.05745E-05
1.313689655;1.93027E-05;1.46029E-05
1.314155172;1.72885E-05;1.39315E-05
1.31462069;1.30922E-05;9.23171E-06
1.315086207;8.89601E-06;3.52483E-06
1.315551724;8.39246E-06;-1.17494E-06
1.316017241;1.05745E-05;-5.53903E-06
1.316482759;1.10781E-05;-8.89601E-06
1.316948276;1.12459E-05;-1.05745E-05
1.317413793;9.9031E-06;-1.15816E-05
1.31787931;9.23171E-06;-1.2253E-05
1.318344828;1.05745E-05;-1.02388E-05
1.318810345;1.17494E-05;-7.55322E-06
1.319275862;1.02388E-05;-4.53193E-06
1.319741379;8.56031E-06;-5.53903E-06
1.320206897;5.53903E-06;-6.88182E-06
1.320672414;3.02129E-06;-5.70687E-06
1.321137931;4.53193E-06;-2.51774E-06
1.321603448;9.23171E-06;-1.67849E-07
1.322068966;1.49386E-05;2.51774E-06
1.322534483;1.79599E-05;7.88891E-06
1.323;1.79599E-05;1.32601E-05
1.323465517;1.82956E-05;1.69528E-05
1.323931034;1.93027E-05;1.7792E-05
1.324396552;1.93027E-05;1.72885E-05
1.324862069;1.79599E-05;1.52743E-05
1.325327586;1.82956E-05;1.59457E-05
1.325793103;1.99741E-05;1.93027E-05
1.326258621;2.19883E-05;2.06455E-05
1.326724138;2.19883E-05;1.72885E-05
1.327189655;1.8967E-05;1.32601E-05
1.327655172;1.35958E-05;1.17494E-05
1.32812069;1.02388E-05;1.35958E-05
1.328586207;8.22461E-06;1.52743E-05
1.329051724;6.54612E-06;1.46029E-05
1.329517241;6.54612E-06;1.32601E-05
1.329982759;7.88891E-06;1.39315E-05
1.330448276;9.56741E-06;1.59457E-05
1.330913793;1.05745E-05;1.66171E-05
1.33137931;1.15816E-05;1.72885E-05
1.331844828;1.15816E-05;1.82956E-05
1.332310345;1.04067E-05;1.99741E-05
1.332775862;9.23171E-06;1.99741E-05
1.333241379;9.73526E-06;1.84634E-05
1.333706897;1.09102E-05;1.42672E-05
1.334172414;1.09102E-05;1.04067E-05
1.334637931;1.05745E-05;8.56031E-06
1.335103448;8.39246E-06;7.04967E-06
1.335568966;7.21752E-06;5.87472E-06
1.336034483;9.23171E-06;4.53193E-06
1.3365;1.05745E-05;3.86053E-06
1.336965517;9.9031E-06;2.51774E-06
1.337431034;9.23171E-06;-1.17494E-06
1.337896552;8.89601E-06;-6.21042E-06
1.338362069;8.56031E-06;-9.73526E-06
1.338827586;7.55322E-06;-1.35958E-05
1.339293103;6.04257E-06;-1.76242E-05
1.339758621;5.20333E-06;-2.03098E-05
1.340224138;5.20333E-06;-2.1149E-05
1.340689655;6.54612E-06;-1.76242E-05
1.341155172;6.54612E-06;-1.2253E-05
1.34162069;6.54612E-06;-9.56741E-06
1.342086207;7.55322E-06;-1.12459E-05
1.342551724;7.88891E-06;-1.49386E-05
1.343017241;8.56031E-06;-1.49386E-05
1.343482759;8.89601E-06;-1.04067E-05
1.343948276;7.88891E-06;-7.88891E-06
1.344413793;7.88891E-06;-8.22461E-06
1.34487931;8.56031E-06;-8.22461E-06
1.345344828;6.37827E-06;-6.88182E-06
1.345810345;3.69268E-06;-5.53903E-06
1.346275862;3.86053E-06;-4.19623E-06
1.346741379;6.21042E-06;-3.18914E-06
1.347206897;6.54612E-06;-1.17494E-06
1.347672414;5.03548E-06;1.84634E-06
1.348137931;6.04257E-06;3.18914E-06
1.348603448;8.89601E-06;5.53903E-06
1.349068966;1.15816E-05;8.89601E-06
1.349534483;1.05745E-05;1.12459E-05
1.35;7.21752E-06;1.30922E-05
1.350465517;5.20333E-06;1.4435E-05
1.350931034;5.20333E-06;1.25887E-05
1.351396552;4.53193E-06;7.88891E-06
1.351862069;1.17494E-06;2.51774E-06
1.352327586;5.03548E-07;-1.51064E-06
1.352793103;4.86763E-06;-2.34989E-06
1.353258621;7.21752E-06;-1.51064E-06
1.353724138;6.54612E-06;-2.85344E-06
1.354189655;5.20333E-06;-7.04967E-06
1.354655172;5.37118E-06;-1.25887E-05
1.35512069;6.54612E-06;-1.15816E-05
1.355586207;7.88891E-06;-5.87472E-06
1.356051724;7.55322E-06;-3.18914E-06
1.356517241;7.21752E-06;-4.86763E-06
1.356982759;8.56031E-06;-6.88182E-06
1.357448276;1.14137E-05;-4.69978E-06
1.357913793;1.29244E-05;-1.51064E-06
1.35837931;1.42672E-05;3.69268E-06
1.358844828;1.46029E-05;8.89601E-06
1.359310345;1.35958E-05;1.19173E-05
1.359775862;1.2253E-05;1.32601E-05
1.360241379;1.19173E-05;1.32601E-05
1.360706897;1.32601E-05;1.25887E-05
1.361172414;1.46029E-05;1.32601E-05
1.361637931;1.72885E-05;1.71206E-05
1.362103448;1.93027E-05;1.84634E-05
1.362568966;2.03098E-05;1.64492E-05
1.363034483;1.99741E-05;1.46029E-05
1.3635;1.86313E-05;1.32601E-05
1.363965517;1.76242E-05;1.42672E-05
1.364431034;1.72885E-05;1.82956E-05
1.364896552;1.561E-05;2.26596E-05
1.365362069;1.52743E-05;2.46738E-05
1.365827586;1.54421E-05;2.58488E-05
1.366293103;1.46029E-05;2.6688E-05
1.366758621;1.25887E-05;2.53452E-05
1.367224138;1.2253E-05;2.31632E-05
1.367689655;1.29244E-05;1.93027E-05
1.368155172;1.15816E-05;1.32601E-05
1.36862069;9.9031E-06;9.23171E-06
1.369086207;9.23171E-06;1.05745E-05
1.369551724;8.89601E-06;1.49386E-05
1.370017241;6.37827E-06;1.86313E-05
1.370482759;2.85344E-06;1.99741E-05
1.370948276;1.17494E-06;2.09812E-05
1.371413793;-1.67849E-07;1.96384E-05
1.37187931;-2.51774E-06;1.19173E-05
1.372344828;-5.70687E-06;-5.03548E-07
1.372810345;-8.22461E-06;-1.15816E-05
1.373275862;-7.72107E-06;-1.98062E-05
1.373741379;-6.54612E-06;-2.50095E-05
1.374206897;-3.86053E-06;-2.70237E-05
1.374672414;5.03548E-07;-2.26596E-05
1.375137931;4.53193E-06;-1.42672E-05
1.375603448;6.54612E-06;-4.86763E-06
1.376068966;6.21042E-06;5.03548E-07
1.376534483;7.21752E-06;1.84634E-06
1.377;1.12459E-05;3.52483E-06
1.377465517;1.4435E-05;6.54612E-06
1.377931034;1.51064E-05;7.88891E-06
1.378396552;1.46029E-05;7.55322E-06
1.378862069;1.42672E-05;8.22461E-06
1.379327586;1.4435E-05;1.12459E-05
1.379793103;1.32601E-05;1.15816E-05
1.380258621;1.2253E-05;7.88891E-06
1.380724138;1.35958E-05;3.86053E-06
1.381189655;1.52743E-05;1.84634E-06
1.381655172;1.35958E-05;1.67849E-07
1.38212069;1.02388E-05;1.0071E-06
1.382586207;8.22461E-06;3.69268E-06
1.383051724;7.88891E-06;4.69978E-06
1.383517241;7.88891E-06;3.18914E-06
1.383982759;4.86763E-06;1.67849E-06
1.384448276;1.17494E-06;-1.67849E-07
1.384913793;-2.18204E-06;-3.18914E-06
1.38537931;-3.18914E-06;-7.88891E-06
1.385844828;-2.85344E-06;-1.09102E-05
1.386310345;-2.85344E-06;-1.02388E-05
1.386775862;-1.84634E-06;-8.89601E-06
1.387241379;1.84634E-06;-6.88182E-06
1.387706897;5.20333E-06;-3.86053E-06
1.388172414;7.88891E-06;-1.67849E-07
1.388637931;1.04067E-05;2.34989E-06
1.389103448;1.19173E-05;2.18204E-06
1.389568966;1.25887E-05;3.18914E-06
1.390034483;1.19173E-05;5.87472E-06
1.3905;1.19173E-05;7.88891E-06
1.390965517;1.12459E-05;6.21042E-06
1.391431034;1.12459E-05;1.84634E-06
1.391896552;1.19173E-05;-8.39246E-07
1.392362069;1.12459E-05;-1.0071E-06
1.392827586;1.05745E-05;-3.35698E-07
1.393293103;1.05745E-05;2.34989E-06
1.393758621;1.10781E-05;5.20333E-06
1.394224138;1.12459E-05;5.53903E-06
1.394689655;1.05745E-05;4.19623E-06
1.395155172;9.56741E-06;4.53193E-06
1.39562069;1.09102E-05;3.86053E-06
1.396086207;1.37636E-05;3.86053E-06
1.396551724;1.52743E-05;4.19623E-06
1.397017241;1.46029E-05;5.70687E-06
1.397482759;1.32601E-05;7.88891E-06
1.397948276;1.32601E-05;9.56741E-06
1.398413793;1.24208E-05;9.9031E-06
1.39887931;1.02388E-05;8.56031E-06
1.399344828;7.88891E-06;5.87472E-06
1.399810345;7.21752E-06;4.86763E-06
1.400275862;6.21042E-06;7.21752E-06
1.400741379;6.21042E-06;9.9031E-06
1.401206897;5.20333E-06;1.02388E-05
1.401672414;3.86053E-06;6.54612E-06
1.402137931;5.20333E-06;1.67849E-06
1.402603448;9.23171E-06;1.17494E-06
1.403068966;1.12459E-05;3.18914E-06
1.403534483;1.05745E-05;4.53193E-06
1.404;9.23171E-06;6.88182E-06
1.404465517;8.56031E-06;1.05745E-05
1.404931034;8.22461E-06;1.561E-05
1.405396552;7.72107E-06;1.99741E-05
1.405862069;6.21042E-06;2.16526E-05
1.406327586;6.88182E-06;1.96384E-05
1.406793103;9.9031E-06;1.561E-05
1.407258621;1.12459E-05;1.19173E-05
1.407724138;1.05745E-05;1.05745E-05
1.408189655;1.05745E-05;1.15816E-05
1.408655172;1.15816E-05;1.12459E-05
1.40912069;1.25887E-05;1.24208E-05
1.409586207;1.32601E-05;1.49386E-05
1.410051724;1.42672E-05;1.59457E-05
1.410517241;1.57778E-05;1.59457E-05
1.410982759;1.72885E-05;1.51064E-05
1.411448276;1.82956E-05;1.42672E-05
1.411913793;1.82956E-05;1.24208E-05
1.41237931;1.72885E-05;1.02388E-05
1.412844828;1.66171E-05;8.39246E-06
1.413310345;1.79599E-05;6.88182E-06
1.413775862;2.09812E-05;7.72107E-06
1.414241379;2.38346E-05;8.56031E-06
1.414706897;2.63523E-05;1.05745E-05
1.415172414;2.76951E-05;1.19173E-05
1.415637931;2.80308E-05;8.56031E-06
1.416103448;2.61845E-05;2.51774E-06
1.416568966;2.18204E-05;-2.85344E-06
1.417034483;1.93027E-05;-5.87472E-06
1.4175;2.06455E-05;-5.87472E-06
1.417965517;2.23239E-05;-2.51774E-06
1.418431034;2.23239E-05;2.85344E-06
1.418896552;1.99741E-05;9.23171E-06
1.419362069;1.52743E-05;1.35958E-05
1.419827586;1.02388E-05;1.46029E-05
1.420293103;5.20333E-06;1.19173E-05
1.420758621;2.51774E-06;9.9031E-06
1.421224138;1.67849E-07;1.05745E-05
1.421689655;-1.51064E-06;1.32601E-05
1.422155172;-3.02129E-06;1.12459E-05
1.42262069;-6.04257E-06;9.23171E-06
1.423086207;-1.09102E-05;7.88891E-06
1.423551724;-1.42672E-05;8.89601E-06
1.424017241;-1.79599E-05;1.27565E-05
1.424482759;-2.03098E-05;1.46029E-05
1.424948276;-1.93027E-05;1.0071E-05
1.425413793;-1.66171E-05;1.84634E-06
1.42587931;-1.39315E-05;-1.67849E-06
1.426344828;-9.56741E-06;-2.18204E-06
1.426810345;-3.18914E-06;-2.85344E-06
1.427275862;3.69268E-06;-3.18914E-06
1.427741379;1.02388E-05;-1.84634E-06
1.428206897;1.30922E-05;2.34989E-06
1.428672414;1.37636E-05;7.38537E-06
1.429137931;1.30922E-05;1.37636E-05
1.429603448;1.37636E-05;1.86313E-05
1.430068966;1.46029E-05;2.09812E-05
1.430534483;1.42672E-05;2.40024E-05
1.431;1.24208E-05;2.80308E-05
1.431465517;8.56031E-06;3.17235E-05
1.431931034;6.21042E-06;3.27306E-05
1.432396552;5.20333E-06;3.07164E-05
1.432862069;3.86053E-06;2.90379E-05
1.433327586;3.35698E-07;2.87022E-05
1.433793103;-3.86053E-06;2.75273E-05
1.434258621;-6.88182E-06;2.53452E-05
1.434724138;-8.56031E-06;2.13169E-05
1.435189655;-8.89601E-06;1.46029E-05
1.435655172;-8.22461E-06;6.54612E-06
1.43612069;-9.73526E-06;-3.52483E-06
1.436586207;-1.25887E-05;-1.561E-05
1.437051724;-1.25887E-05;-2.51774E-05
1.437517241;-8.22461E-06;-3.13878E-05
1.437982759;-1.51064E-06;-3.47448E-05
1.438448276;2.51774E-06;-3.91089E-05
1.438913793;5.03548E-06;-4.448E-05
1.43937931;7.88891E-06;-4.59907E-05
1.439844828;9.73526E-06;-4.31373E-05
1.440310345;9.23171E-06;-3.84375E-05
1.440775862;9.56741E-06;-3.23949E-05
1.441241379;1.2253E-05;-2.38346E-05
1.441706897;1.35958E-05;-1.52743E-05
1.442172414;1.42672E-05;-8.89601E-06
1.442637931;1.69528E-05;-4.86763E-06
1.443103448;1.96384E-05;-1.51064E-06
1.443568966;2.03098E-05;1.67849E-06
1.444034483;2.13169E-05;5.87472E-06
1.4445;2.26596E-05;8.56031E-06
1.444965517;2.26596E-05;1.02388E-05
1.445431034;2.26596E-05;1.02388E-05
1.445896552;2.18204E-05;7.88891E-06
1.446362069;2.1149E-05;5.87472E-06
1.446827586;1.94705E-05;7.04967E-06
1.447293103;1.66171E-05;1.37636E-05
1.447758621;1.61135E-05;2.16526E-05
1.448224138;1.76242E-05;2.51774E-05
1.448689655;1.93027E-05;2.06455E-05
1.449155172;1.66171E-05;7.88891E-06
1.44962069;1.24208E-05;-5.87472E-06
1.450086207;1.05745E-05;-1.49386E-05
1.450551724;9.9031E-06;-1.52743E-05
1.451017241;8.89601E-06;-1.02388E-05
1.451482759;7.88891E-06;-3.86053E-06
1.451948276;9.23171E-06;-8.39246E-07
1.452413793;1.12459E-05;-1.51064E-06
1.45287931;1.15816E-05;-2.85344E-06
1.453344828;1.09102E-05;-1.67849E-06
1.453810345;1.15816E-05;1.17494E-06
1.454275862;1.32601E-05;4.19623E-06
1.454741379;1.37636E-05;5.70687E-06
1.455206897;1.32601E-05;7.88891E-06
1.455672414;1.30922E-05;1.10781E-05
1.456137931;1.32601E-05;1.42672E-05
1.456603448;1.39315E-05;1.54421E-05
1.457068966;1.32601E-05;1.66171E-05
1.457534483;1.2253E-05;1.71206E-05
1.458;1.05745E-05;1.59457E-05
1.458465517;1.10781E-05;1.46029E-05
1.458931034;1.32601E-05;1.49386E-05
1.459396552;1.37636E-05;1.59457E-05
1.459862069;1.19173E-05;1.66171E-05
1.460327586;1.15816E-05;1.62814E-05
1.460793103;1.12459E-05;1.49386E-05
1.461258621;9.23171E-06;1.19173E-05
1.461724138;7.88891E-06;7.55322E-06
1.462189655;6.54612E-06;4.19623E-06
1.462655172;5.87472E-06;1.67849E-07
1.46312069;6.54612E-06;-3.69268E-06
1.463586207;7.55322E-06;-4.19623E-06
1.464051724;7.21752E-06;-8.39246E-07
1.464517241;5.70687E-06;3.69268E-06
1.464982759;5.03548E-06;6.54612E-06
1.465448276;5.53903E-06;9.23171E-06
1.465913793;6.21042E-06;9.56741E-06
1.46637931;5.53903E-06;1.05745E-05
1.466844828;5.53903E-06;1.51064E-05
1.467310345;7.21752E-06;1.99741E-05
1.467775862;9.23171E-06;2.23239E-05
1.468241379;9.9031E-06;2.06455E-05
1.468706897;8.89601E-06;1.72885E-05
1.469172414;8.89601E-06;1.66171E-05
1.469637931;1.15816E-05;1.93027E-05
1.470103448;1.39315E-05;2.1149E-05
1.470568966;1.32601E-05;1.79599E-05
1.471034483;1.05745E-05;1.15816E-05
1.4715;9.23171E-06;7.88891E-06
1.471965517;8.56031E-06;9.06386E-06
1.472431034;9.9031E-06;1.05745E-05
1.472896552;1.05745E-05;1.2253E-05
1.473362069;1.05745E-05;1.46029E-05
1.473827586;1.09102E-05;1.86313E-05
1.474293103;1.17494E-05;2.19883E-05
1.474758621;1.19173E-05;2.13169E-05
1.475224138;9.23171E-06;1.561E-05
1.475689655;5.20333E-06;5.20333E-06
1.476155172;1.84634E-06;-7.55322E-06
1.47662069;-5.03548E-07;-1.84634E-05
1.477086207;-8.39246E-07;-2.85344E-05
1.477551724;-1.67849E-07;-3.69268E-05
1.478017241;5.03548E-07;-4.11231E-05
1.478482759;1.17494E-06;-3.77661E-05
1.478948276;3.69268E-06;-2.63523E-05
1.479413793;5.87472E-06;-1.46029E-05
1.47987931;7.04967E-06;-3.52483E-06
1.480344828;7.55322E-06;5.20333E-06
1.480810345;7.88891E-06;8.56031E-06
1.481275862;7.21752E-06;5.53903E-06
1.481741379;4.86763E-06;-1.17494E-06
1.482206897;5.20333E-06;-6.21042E-06
1.482672414;7.21752E-06;-8.56031E-06
1.483137931;7.21752E-06;-1.09102E-05
1.483603448;4.36408E-06;-1.35958E-05
1.484068966;3.02129E-06;-1.62814E-05
1.484534483;4.19623E-06;-1.49386E-05
1.485;6.37827E-06;-9.06386E-06
1.485465517;8.56031E-06;-1.67849E-07
1.485931034;1.09102E-05;6.54612E-06
1.486396552;1.29244E-05;7.88891E-06
1.486862069;1.24208E-05;4.86763E-06
1.487327586;1.29244E-05;3.18914E-06
1.487793103;1.52743E-05;6.21042E-06
1.488258621;1.72885E-05;1.02388E-05
1.488724138;1.86313E-05;1.35958E-05
1.489189655;1.93027E-05;1.72885E-05
1.489655172;1.79599E-05;1.99741E-05
1.49012069;1.59457E-05;1.84634E-05
1.490586207;1.32601E-05;1.2253E-05
1.491051724;1.02388E-05;1.51064E-06
1.491517241;6.88182E-06;-7.21752E-06
1.491982759;5.20333E-06;-7.55322E-06
1.492448276;3.52483E-06;-1.84634E-06
1.492913793;1.84634E-06;4.53193E-06
1.49337931;3.86053E-06;1.32601E-05
1.493844828;6.88182E-06;2.36667E-05
1.494310345;1.10781E-05;3.10521E-05
1.494775862;1.39315E-05;3.27306E-05
1.495241379;1.72885E-05;3.17235E-05
1.495706897;2.06455E-05;3.07164E-05
1.496172414;2.40024E-05;2.90379E-05
1.496637931;2.70237E-05;2.56809E-05
1.497103448;2.97093E-05;2.31632E-05
1.497568966;3.20592E-05;2.24918E-05
1.498034483;3.37377E-05;2.50095E-05
1.4985;3.44091E-05;2.7863E-05
1.498965517;3.30663E-05;2.80308E-05
1.499431034;3.07164E-05;2.70237E-05
1.499896552;2.80308E-05;2.38346E-05
1.500362069;2.19883E-05;1.72885E-05
1.500827586;1.51064E-05;8.39246E-06
1.501293103;7.21752E-06;-3.52483E-06
1.501758621;8.39246E-07;-1.69528E-05
1.502224138;-1.51064E-06;-2.6688E-05
1.502689655;-1.51064E-06;-3.17235E-05
1.503155172;-1.51064E-06;-3.44091E-05
1.50362069;-3.18914E-06;-3.37377E-05
1.504086207;-5.53903E-06;-2.80308E-05
1.504551724;-5.87472E-06;-2.23239E-05
1.505017241;-4.86763E-06;-2.16526E-05
1.505482759;-4.86763E-06;-2.50095E-05
1.505948276;-5.20333E-06;-2.76951E-05
1.506413793;-3.86053E-06;-2.88701E-05
1.50687931;-1.67849E-06;-2.76951E-05
1.507344828;-2.51774E-06;-2.83665E-05
1.507810345;-6.88182E-06;-3.30663E-05
1.508275862;-1.19173E-05;-3.91089E-05
1.508741379;-1.49386E-05;-4.11231E-05
1.509206897;-1.29244E-05;-3.74304E-05
1.509672414;-6.21042E-06;-2.73594E-05
1.510137931;-1.67849E-07;-1.29244E-05
1.510603448;4.53193E-06;2.18204E-06
1.511068966;7.55322E-06;1.35958E-05
1.511534483;7.88891E-06;1.93027E-05
1.512;3.18914E-06;1.99741E-05
1.512465517;-5.03548E-07;2.31632E-05
1.512931034;3.18914E-06;3.18914E-05
1.513396552;8.56031E-06;4.07874E-05
1.513862069;1.30922E-05;4.61585E-05
1.514327586;1.59457E-05;4.95155E-05
1.514793103;1.91348E-05;5.1194E-05
1.515258621;1.96384E-05;5.15297E-05
1.515724138;1.84634E-05;4.80049E-05
1.516189655;1.7792E-05;4.14588E-05
1.516655172;1.66171E-05;3.32342E-05
1.51712069;1.42672E-05;2.63523E-05
1.517586207;9.9031E-06;1.96384E-05
1.518051724;5.70687E-06;1.09102E-05
1.518517241;2.51774E-06;3.86053E-06
1.518982759;1.84634E-06;2.51774E-06
1.519448276;3.52483E-06;3.52483E-06
1.519913793;6.37827E-06;3.69268E-06
1.52037931;9.56741E-06;2.18204E-06
1.520844828;8.89601E-06;-2.85344E-06
1.521310345;5.20333E-06;-5.53903E-06
1.521775862;2.51774E-06;-3.52483E-06
1.522241379;2.51774E-06;-2.18204E-06
1.522706897;3.52483E-06;-3.52483E-06
1.523172414;4.19623E-06;-3.52483E-06
1.523637931;5.87472E-06;-9.56741E-06
1.524103448;9.9031E-06;-2.09812E-05
1.524568966;1.52743E-05;-2.50095E-05
1.525034483;2.18204E-05;-1.49386E-05
1.5255;2.53452E-05;-2.51774E-06
1.525965517;2.40024E-05;-4.19623E-06
1.526431034;2.06455E-05;-1.19173E-05
1.526896552;2.06455E-05;-1.42672E-05
1.527362069;1.99741E-05;-1.72885E-05
1.527827586;1.84634E-05;-2.19883E-05
1.528293103;1.62814E-05;-2.50095E-05
1.528758621;1.46029E-05;-2.87022E-05
1.529224138;1.46029E-05;-3.13878E-05
1.529689655;1.59457E-05;-2.56809E-05
1.530155172;1.561E-05;-1.64492E-05
1.53062069;1.561E-05;-7.88891E-06
1.531086207;1.76242E-05;7.04967E-06
1.531551724;1.98062E-05;2.80308E-05
1.532017241;2.09812E-05;4.33051E-05
1.532482759;1.91348E-05;4.73335E-05
1.532948276;1.32601E-05;3.84375E-05
1.533413793;1.84634E-06;1.72885E-05
1.53387931;-8.56031E-06;-4.19623E-06
1.534344828;-1.10781E-05;-1.561E-05
1.534810345;-1.02388E-05;-1.49386E-05
1.535275862;-1.2253E-05;-9.73526E-06
1.535741379;-1.76242E-05;-4.86763E-06
1.536206897;-2.34989E-05;-2.51774E-06
1.536672414;-2.56809E-05;-4.19623E-06
1.537137931;-2.3331E-05;-3.02129E-06
1.537603448;-2.09812E-05;1.84634E-06
1.538068966;-2.19883E-05;5.20333E-06
1.538534483;-2.36667E-05;9.06386E-06
1.539;-2.23239E-05;1.12459E-05
1.539465517;-1.76242E-05;7.72107E-06
1.539931034;-1.29244E-05;2.18204E-06
1.540396552;-8.56031E-06;1.67849E-07
1.540862069;-4.86763E-06;2.51774E-06
1.541327586;-8.39246E-07;7.72107E-06
1.541793103;1.17494E-06;1.561E-05
1.542258621;3.18914E-06;2.3331E-05
1.542724138;5.20333E-06;3.0045E-05
1.543189655;7.21752E-06;3.42412E-05
1.543655172;5.53903E-06;3.07164E-05
1.54412069;4.02838E-06;2.13169E-05
1.544586207;6.21042E-06;1.49386E-05
1.545051724;5.87472E-06;1.29244E-05
1.545517241;5.20333E-06;1.29244E-05
1.545982759;6.88182E-06;1.46029E-05
1.546448276;8.89601E-06;1.64492E-05
1.546913793;8.89601E-06;1.561E-05
1.54737931;1.0071E-05;1.7792E-05
1.547844828;1.29244E-05;2.60166E-05
1.548310345;1.4435E-05;3.47448E-05
1.548775862;1.46029E-05;3.74304E-05
1.549241379;1.52743E-05;3.87732E-05
1.549706897;1.79599E-05;4.24659E-05
1.550172414;2.3331E-05;4.7837E-05
1.550637931;2.70237E-05;4.91798E-05
1.551103448;2.73594E-05;4.53193E-05
1.551568966;2.46738E-05;3.94446E-05
1.552034483;2.3331E-05;3.57519E-05
1.5525;2.50095E-05;3.3402E-05
1.552965517;2.43381E-05;2.90379E-05
1.553431034;2.13169E-05;2.40024E-05
1.553896552;1.84634E-05;2.03098E-05
1.554362069;1.96384E-05;1.99741E-05
1.554827586;2.48417E-05;2.26596E-05
1.555293103;2.93736E-05;2.23239E-05
1.555758621;2.6688E-05;1.66171E-05
1.556224138;1.72885E-05;9.9031E-06
1.556689655;8.89601E-06;5.20333E-06
1.557155172;4.86763E-06;2.01419E-06
